record_id,score_af,predicted_af
E00001,0.0005872839322,0
E00002,4.029872601e-05,0
E00003,0.001740157703,0
E00004,0.02454012485,0
E00005,0.4736653992,0
E00006,9.170408466e-05,0
E00007,0.004337984305,0
E00008,0.007966968819,0
E00009,0.0006902595569,0
E00010,0.000544429006,0
E00011,0.002053756084,0
E00012,0.0005367847362,0
E00013,0.01616662167,0
E00014,0.0004473405404,0
E00015,0.0002319372946,0
E00016,0.0453188346,0
E00017,1.598044247e-05,0
E00018,0.0005693428721,0
E00019,4.162439062e-05,0
E00020,4.548736832e-05,0
E00021,4.17880574e-05,0
E00022,0.01107416959,0
E00023,0.0004085675623,0
E00024,0.003319014587,0
E00025,8.868850576e-05,0
E00026,3.944979215e-05,0
E00027,0.03092138666,0
E00028,3.092908008e-05,0
E00029,0.0001632566552,0
E00030,0.002310564764,0
E00031,9.110785903e-05,0
E00032,0.001729721038,0
E00033,0.0818308945,0
E00034,0.003611356255,0
E00035,0.009447732108,0
E00036,0.5174036368,0
E00037,0.0001150123528,0
E00038,0.01016653038,0
E00039,0.0001325433352,0
E00040,0.0008203644039,0
E00041,0.0001151207869,0
E00042,0.0001566843421,0
E00043,3.756748019e-05,0
E00044,0.01307836708,0
E00045,0.0006155036949,0
E00046,0.0003043642143,0
E00047,0.1146716093,0
E00048,0.04040426673,0
E00049,0.0002804204321,0
E00050,8.670485064e-05,0
E00051,0.0003358556231,0
E00052,0.0008656887699,0
E00053,0.177808686,0
E00054,0.0001947381432,0
E00055,0.004731015571,0
E00056,0.003797680646,0
E00057,0.0005486937305,0
E00058,0.01731497754,0
E00059,0.06170753275,0
E00060,0.0005486937305,0
E00061,0.0003250428096,0
E00062,0.0001373374239,0
E00063,0.003124144593,0
E00064,0.001062950303,0
E00065,0.003075589767,0
E00066,0.007204825365,0
E00067,0.0007731320028,0
E00068,0.0001804860925,0
E00069,0.0001315474749,0
E00070,0.0003559377902,0
E00071,0.001056662748,0
E00072,0.0008584797794,0
E00073,7.148529192e-05,0
E00074,0.009856715578,0
E00075,7.773784523e-05,0
E00076,0.006033603641,0
E00077,0.9971706921,1
E00078,0.0001760687729,0
E00079,5.605098321e-05,0
E00080,5.863581801e-05,0
E00081,0.0007208343095,0
E00082,0.01126540046,0
E00083,0.001485322906,0
E00084,0.0001433239926,0
E00085,6.034034119e-05,0
E00086,0.0001302200429,0
E00087,0.0007588905591,0
E00088,7.791239691e-05,0
E00089,0.000932727783,0
E00090,0.0001601782042,0
E00091,4.496632468e-05,0
E00092,0.0002226689288,0
E00093,0.00024282895,0
E00094,0.0004133565332,0
E00095,0.001172940641,0
E00096,9.092397021e-05,0
E00097,0.01870026389,0
E00098,8.975813248e-05,0
E00099,6.890199492e-05,0
E00100,0.2779073386,0
E00101,0.008258729675,0
E00102,0.0008463996138,0
E00103,3.571423269e-05,0
E00104,0.0004000298793,0
E00105,0.0001270625616,0
E00106,0.000151691029,0
E00107,0.004008637786,0
E00108,0.0008112580021,0
E00109,0.0004896576096,0
E00110,0.000130315122,0
E00111,0.0002114197532,0
E00112,1.96474261e-05,0
E00113,9.713090661e-05,0
E00114,0.002324389743,0
E00115,0.0001853604455,0
E00116,0.001579228338,0
E00117,0.9466851697,1
E00118,5.786730685e-05,0
E00119,0.002043275831,0
E00120,2.029290474e-05,0
E00121,0.0001760715709,0
E00122,0.001380241839,0
E00123,8.162375943e-05,0
E00124,4.696927896e-05,0
E00125,0.02423124275,0
E00126,0.0001223963202,0
E00127,2.667286535e-05,0
E00128,6.071750425e-05,0
E00129,2.595095961e-05,0
E00130,0.0001529527594,0
E00131,0.0001406050805,0
E00132,0.0002088752576,0
E00133,0.0002461566004,0
E00134,0.001046268844,0
E00135,0.0001404324667,0
E00136,8.047339883e-05,0
E00137,0.0003388322553,0
E00138,0.002074577745,0
E00139,0.0001181457903,0
E00140,0.000147675561,0
E00141,0.0001380908218,0
E00142,5.996845837e-05,0
E00143,0.02526384844,0
E00144,0.0001360830403,0
E00145,0.001630967825,0
E00146,0.0005122772192,0
E00147,0.05182589402,0
E00148,0.0001773610449,0
E00149,0.01470332629,0
E00150,0.0003095831213,0
E00151,0.001202301873,0
E00152,0.9410683733,1
E00153,0.02590414575,0
E00154,6.526295465e-05,0
E00155,0.001523753112,0
E00156,0.2334535748,0
E00157,9.413392118e-05,0
E00158,0.0004212926825,0
E00159,0.0001274402768,0
E00160,5.496982621e-05,0
E00161,0.6744728892,0
E00162,0.0116558913,0
E00163,0.0001024593768,0
E00164,0.0006335986446,0
E00165,0.0002107813391,0
E00166,9.079038673e-05,0
E00167,0.000210862967,0
E00168,0.0001879430076,0
E00169,0.01350601662,0
E00170,0.00148167538,0
E00171,0.0001259071994,0
E00172,0.0001044652823,0
E00173,6.73296417e-05,0
E00174,0.0007414954009,0
E00175,0.002768160409,0
E00176,0.008028818675,0
E00177,0.9797026211,1
E00178,7.685679447e-05,0
E00179,0.001074627586,0
E00180,6.046342806e-05,0
E00181,0.0002737386375,0
E00182,0.0001210865467,0
E00183,0.0004308748061,0
E00184,1.586313379e-05,0
E00185,0.001514122419,0
E00186,0.0002663288583,0
E00187,0.0002954622229,0
E00188,0.0006376929967,0
E00189,0.00011055602,0
E00190,0.0005982398679,0
E00191,0.08236843953,0
E00192,0.002760095769,0
E00193,8.267082399e-05,0
E00194,0.06546610008,0
E00195,3.150675963e-05,0
E00196,0.0003733697915,0
E00197,0.002616787963,0
E00198,2.368718275e-05,0
E00199,0.0009519318003,0
E00200,0.0002349878813,0
E00201,0.0001824739486,0
E00202,0.976205911,1
E00203,0.0003667022939,0
E00204,0.3253082229,0
E00205,0.00055174091,0
E00206,5.984489125e-05,0
E00207,0.0009211786242,0
E00208,0.007826522752,0
E00209,0.0001758348235,0
E00210,8.28175449e-05,0
E00211,4.589305079e-05,0
E00212,0.0001336256638,0
E00213,0.0001372987122,0
E00214,0.0001680627748,0
E00215,9.469696659e-05,0
E00216,0.0002978281921,0
E00217,3.702815806e-05,0
E00218,0.0001362010101,0
E00219,4.800672403e-05,0
E00220,0.000173034871,0
E00221,0.0002306513805,0
E00222,6.117604625e-05,0
E00223,0.1166523461,0
E00224,0.2247558294,0
E00225,0.1419588294,0
E00226,0.000225527323,0
E00227,2.977314993e-05,0
E00228,0.0001336536093,0
E00229,0.0002218275106,0
E00230,0.0002625111875,0
E00231,0.0002947921813,0
E00232,0.0002667750448,0
E00233,3.993387252e-05,0
E00234,0.0001789245708,0
E00235,0.0003620849866,0
E00236,7.810676683e-05,0
E00237,8.701642761e-05,0
E00238,0.0003525035907,0
E00239,0.02767748132,0
E00240,0.0001242931587,0
E00241,7.463703308e-05,0
E00242,0.1527186496,0
E00243,0.0001147357101,0
E00244,6.199236334e-05,0
E00245,8.50497828e-05,0
E00246,0.9747246149,1
E00247,0.000517534322,0
E00248,0.02158753161,0
E00249,0.0004868625082,0
E00250,0.01307641639,0
E00251,0.3318435803,0
E00252,0.0002058977398,0
E00253,1.802967894e-05,0
E00254,4.148919209e-05,0
E00255,0.002361459573,0
E00256,0.0001806335896,0
E00257,4.848479305e-05,0
E00258,1.801202287e-05,0
E00259,0.8773782703,1
E00260,0.3035322685,0
E00261,2.05643725e-05,0
E00262,0.0193459121,0
E00263,0.8064579392,1
E00264,9.951748284e-05,0
E00265,0.00128943881,0
E00266,0.003804076952,0
E00267,0.003307549658,0
E00268,0.0002277413694,0
E00269,0.0001892810638,0
E00270,0.001124543084,0
E00271,0.000604507793,0
E00272,0.007663703764,0
E00273,0.0007777799098,0
E00274,2.891684396e-05,0
E00275,0.6143043205,0
E00276,2.382956668e-05,0
E00277,0.0002038085479,0
E00278,0.0001407196839,0
E00279,0.0004542015072,0
E00280,0.0001024627656,0
E00281,0.5549035301,0
E00282,0.7697398348,0
E00283,0.000256266426,0
E00284,0.0003691823854,0
E00285,0.04025314991,0
E00286,5.352731168e-05,0
E00287,0.0006596620908,0
E00288,7.644707959e-05,0
E00289,0.0001222707959,0
E00290,0.0003205784855,0
E00291,0.01588370479,0
E00292,6.606051158e-05,0
E00293,0.0001589871409,0
E00294,6.0035466e-05,0
E00295,0.001648210654,0
E00296,0.0005544455194,0
E00297,0.0003998611481,0
E00298,0.01846699234,0
E00299,0.0001169440169,0
E00300,0.7487625411,0
E00301,0.2247558294,0
E00302,0.0002625111875,0
E00303,0.0002831777017,0
E00304,3.993387252e-05,0
E00305,0.001188173111,0
E00306,4.928507846e-05,0
E00307,0.002605547681,0
E00308,0.00910791526,0
E00309,0.0005235136309,0
E00310,8.701642761e-05,0
E00311,6.717216332e-05,0
E00312,0.0023033514,0
E00313,0.0005123950671,0
E00314,0.0003662912945,0
E00315,0.0006473097251,0
E00316,0.0001988255687,0
E00317,0.969969321,1
E00318,6.199236334e-05,0
E00319,8.50497828e-05,0
E00320,0.001715035883,0
E00321,0.9747246149,1
E00322,0.0002766889454,0
E00323,2.383440672e-05,0
E00324,0.001013586167,0
E00325,0.2181466381,0
E00326,0.3318435803,0
E00327,0.0002058977398,0
E00328,0.0003762422647,0
E00329,1.802967894e-05,0
E00330,0.8227942423,1
E00331,0.0001294878426,0
E00332,0.002361459573,0
E00333,0.001040055296,0
E00334,0.3035322685,0
E00335,8.07586431e-05,0
E00336,0.0001050035358,0
E00337,9.220139253e-05,0
E00338,9.340231733e-05,0
E00339,0.0002116143652,0
E00340,0.001123311689,0
E00341,2.795506996e-05,0
E00342,0.6399302523,0
E00343,0.0193459121,0
E00344,0.8064579392,1
E00345,0.0001473139522,0
E00346,2.528531936e-05,0
E00347,9.951748284e-05,0
E00348,0.001014238361,0
E00349,0.02219335734,0
E00350,0.0001338743241,0
E00351,5.393236442e-05,0
E00352,6.549210755e-05,0
E00353,0.0001506504937,0
E00354,0.00291764582,0
E00355,0.000604507793,0
E00356,0.007663703764,0
E00357,3.600941607e-05,0
E00358,0.00133065269,0
E00359,0.0001407196839,0
E00360,0.0004542015072,0
E00361,0.7697398348,0
E00362,0.001853691691,0
E00363,0.0001249666013,0
E00364,4.239442422e-05,0
E00365,0.0001447880917,0
E00366,0.0002411810989,0
E00367,0.0002411810989,0
E00368,0.0252190437,0
E00369,0.0003205784855,0
E00370,0.01588370479,0
E00371,0.0006790649787,0
E00372,0.0004805632979,0
E00373,0.001123049681,0
E00374,0.004045442721,0
E00375,0.0005544455194,0
E00376,0.0003998611481,0
E00377,4.916492195e-05,0
E00378,0.1844077562,0
E00379,0.01165008285,0
E00380,0.0004200426167,0
E00381,0.962506973,1
E00382,8.043887867e-05,0
E00383,0.1066776639,0
E00384,0.0001923921707,0
E00385,0.007850275912,0
E00386,6.051198046e-05,0
E00387,7.073376651e-05,0
E00388,0.0001495972043,0
E00389,4.385356264e-05,0
E00390,0.00104885437,0
E00391,1.754944992e-05,0
E00392,0.2066463724,0
E00393,5.356905607e-05,0
E00394,0.006710265872,0
E00395,0.0001019825822,0
E00396,0.004660836966,0
E00397,4.468141284e-05,0
E00398,0.9326345989,1
E00399,0.1171045692,0
E00400,0.0002040959702,0
E00401,3.164180086e-05,0
E00402,7.112006426e-05,0
E00403,7.409561883e-05,0
E00404,0.005253175853,0
E00405,8.092236947e-05,0
E00406,0.000221363014,0
E00407,6.38207157e-05,0
E00408,0.002668427737,0
E00409,0.02448024101,0
E00410,0.009460562882,0
E00411,0.01094061974,0
E00412,0.0006058490772,0
E00413,5.63438564e-05,0
E00414,0.0002675171583,0
E00415,0.0007920847041,0
E00416,1.96348258e-05,0
E00417,0.0004754917011,0
E00418,0.001480776541,0
E00419,0.0001552384589,0
E00420,0.007223829877,0
E00421,0.01447751522,0
E00422,0.0002463360947,0
E00423,0.0004858638089,0
E00424,2.987038563e-05,0
E00425,0.07145314948,0
E00426,0.9973725037,1
E00427,0.4329990423,0
E00428,0.0007537662807,0
E00429,8.779071884e-05,0
E00430,0.00107286078,0
E00431,5.703770109e-05,0
E00432,0.0005205840063,0
E00433,7.891068811e-05,0
E00434,0.0003093190728,0
E00435,0.0003093190728,0
E00436,0.0004470491767,0
E00437,0.009082604402,0
E00438,0.009082604402,0
E00439,8.235392193e-05,0
E00440,0.000199308284,0
E00441,0.001654566141,0
E00442,0.07526119805,0
E00443,0.001523061062,0
E00444,4.750358787e-05,0
E00445,0.0003468412427,0
E00446,0.0002241841313,0
E00447,0.8835724837,1
E00448,0.0001314664426,0
E00449,0.0001247736312,0
E00450,1.809573094e-05,0
E00451,0.00191962206,0
E00452,0.0001445053804,0
E00453,0.0001237927949,0
E00454,0.007471040485,0
E00455,0.01462996476,0
E00456,0.0008063668745,0
E00457,0.0009938553943,0
E00458,0.000128791757,0
E00459,0.000296527753,0
E00460,9.474101475e-05,0
E00461,0.02465667027,0
E00462,0.9204998179,1
E00463,2.71645475e-05,0
E00464,9.146361489e-05,0
E00465,0.0003830010762,0
E00466,0.0004676021015,0
E00467,0.0008798677614,0
E00468,0.0001813376561,0
E00469,4.181687094e-05,0
E00470,0.0002104417286,0
E00471,1.148363932e-05,0
E00472,5.065153963e-05,0
E00473,0.001704780848,0
E00474,0.001866706028,0
E00475,0.002049615877,0
E00476,0.08136691291,0
E00477,0.0001632379109,0
E00478,0.0001999713031,0
E00479,0.0003212752817,0
E00480,0.9320408229,1
E00481,8.270396436e-05,0
E00482,0.01554207024,0
E00483,0.002661418626,0
E00484,6.048981885e-05,0
E00485,0.002329995031,0
E00486,0.0007239147927,0
E00487,0.0001119495328,0
E00488,0.0001757976913,0
E00489,0.0009998838701,0
E00490,0.03110183951,0
E00491,3.477783064e-05,0
E00492,6.812246394e-05,0
E00493,0.0002112291509,0
E00494,8.646777756e-05,0
E00495,0.001788571913,0
E00496,0.3847794134,0
E00497,0.0002913656862,0
E00498,0.00012706183,0
E00499,0.9192359018,1
E00500,0.09104053407,0
E00501,2.689399888e-05,0
E00502,0.007656976629,0
E00503,1.80476857e-05,0
E00504,0.9753915201,1
E00505,0.0001142959747,0
E00506,0.0009955013635,0
E00507,0.0009998838701,0
E00508,7.979616809e-05,0
E00509,6.812246394e-05,0
E00510,0.0002112291509,0
E00511,0.3847794134,0
E00512,0.0002913656862,0
E00513,0.9192359018,1
E00514,2.03759724e-05,0
E00515,0.0003826933169,0
E00516,6.264413954e-05,0
E00517,1.80476857e-05,0
E00518,0.0002238007873,0
E00519,0.0004035470185,0
E00520,0.0002717095044,0
E00521,0.0001597063085,0
E00522,9.707439968e-05,0
E00523,0.001102768146,0
E00524,0.9753915201,1
E00525,0.3852804619,0
E00526,2.607085596e-05,0
E00527,0.001453265731,0
E00528,0.02239884621,0
E00529,6.715693278e-05,0
E00530,4.416649542e-05,0
E00531,0.09045484564,0
E00532,0.009264119534,0
E00533,2.221887579e-05,0
E00534,0.0001107286834,0
E00535,7.596971961e-05,0
E00536,9.910175613e-05,0
E00537,0.0002046052315,0
E00538,4.111628297e-05,0
E00539,0.000627399311,0
E00540,0.0008653883775,0
E00541,0.0002440408746,0
E00542,0.0004477576629,0
E00543,0.0001015183079,0
E00544,9.212211347e-05,0
E00545,5.569233142e-05,0
E00546,0.002277847337,0
E00547,9.421839434e-05,0
E00548,0.0002250031746,0
E00549,0.00115501384,0
E00550,5.960173922e-05,0
E00551,0.0001107525494,0
E00552,8.226358186e-05,0
E00553,3.93099735e-05,0
E00554,9.262998548e-05,0
E00555,0.0001155734958,0
E00556,0.0001301192917,0
E00557,8.208433864e-05,0
E00558,4.394763545e-05,0
E00559,0.0002937547471,0
E00560,0.8815534761,1
E00561,0.0003152807589,0
E00562,0.008898549313,0
E00563,5.359521533e-05,0
E00564,6.313949383e-05,0
E00565,5.03486049e-05,0
E00566,0.04616143192,0
E00567,0.0001204320311,0
E00568,3.114050942e-05,0
E00569,3.289775555e-05,0
E00570,2.052652063e-05,0
E00571,0.001106440585,0
E00572,1.05515762e-05,0
E00573,0.03087294691,0
E00574,7.962263488e-05,0
E00575,1.585881064e-05,0
E00576,6.275388082e-05,0
E00577,0.0008305821324,0
E00578,0.9906618689,1
E00579,0.000167454207,0
E00580,0.9888296883,1
E00581,0.0005062877526,0
E00582,0.001384567559,0
E00583,0.3340400345,0
E00584,0.009033025255,0
E00585,0.9318203663,1
E00586,0.0003548497502,0
E00587,4.726526427e-05,0
E00588,0.9975609708,1
E00589,5.859924446e-05,0
E00590,0.9943512259,1
E00591,0.9971827339,1
E00592,0.0003023230359,0
E00593,0.06385346957,0
E00594,0.001428161143,0
E00595,0.003096483224,0
E00596,0.004170221113,0
E00597,0.002531708455,0
E00598,8.26564659e-05,0
E00599,0.0001786208746,0
E00600,0.0002715665841,0
E00601,0.001231414897,0
E00602,0.6729121844,0
E00603,0.0001197810179,0
E00604,0.5686989207,0
E00605,1.996366266e-05,0
E00606,0.0009315252779,0
E00607,1.849553413e-05,0
E00608,0.00233692407,0
E00609,0.0002815101496,0
E00610,0.001264660961,0
E00611,0.0002774765636,0
E00612,0.2528461946,0
E00613,0.007761661473,0
E00614,0.000258742592,0
E00615,0.0001714603973,0
E00616,0.0001790678952,0
E00617,0.0008744935254,0
E00618,0.0006462923958,0
E00619,0.0001700647415,0
E00620,4.575502105e-05,0
E00621,0.0001796726588,0
E00622,0.001436860281,0
E00623,0.0002603820754,0
E00624,3.454292205e-05,0
E00625,0.0018501308,0
E00626,8.293753405e-05,0
E00627,0.0002123379817,0
E00628,0.001911234199,0
E00629,0.0002290264498,0
E00630,4.305135571e-05,0
E00631,0.0040951454,0
E00632,9.91905583e-05,0
E00633,0.0001901118808,0
E00634,3.731575086e-05,0
E00635,0.9013163229,1
E00636,0.7098378519,0
E00637,0.006703259783,0
E00638,7.273305956e-05,0
E00639,0.0001013053069,0
E00640,0.0001289485321,0
E00641,0.761260742,0
E00642,0.005708066358,0
E00643,2.65835591e-05,0
E00644,6.704818891e-05,0
E00645,3.656760087e-05,0
E00646,0.0005708613191,0
E00647,9.031741341e-05,0
E00648,0.0004706413819,0
E00649,0.0001065822272,0
E00650,0.01527652982,0
E00651,1.093713668e-05,0
E00652,0.9733232197,1
E00653,0.005283157609,0
E00654,0.1986386403,0
E00655,2.718654534e-05,0
E00656,0.4302926305,0
E00657,0.05512931851,0
E00658,0.008081134674,0
E00659,0.0002828407516,0
E00660,0.0002817321788,0
E00661,0.0004494857181,0
E00662,2.692385996e-05,0
E00663,0.0001972010288,0
E00664,4.14741224e-05,0
E00665,0.002807797409,0
E00666,0.00125354322,0
E00667,0.0006572222491,0
E00668,5.155844824e-05,0
E00669,3.251759007e-05,0
E00670,0.0004576248654,0
E00671,5.06009112e-05,0
E00672,0.0001347380504,0
E00673,0.00366612759,0
E00674,0.001433646216,0
E00675,0.000181373942,0
E00676,0.0002071064335,0
E00677,6.473445795e-05,0
E00678,0.000315219579,0
E00679,0.0002140354152,0
E00680,0.0004003007134,0
E00681,0.004943788186,0
E00682,0.9932934396,1
E00683,0.9986205202,1
E00684,0.0115912275,0
E00685,0.0001040552143,0
E00686,0.009279013262,0
E00687,0.009683284579,0
E00688,0.240751174,0
E00689,0.002165520022,0
E00690,7.076499194e-05,0
E00691,0.0001590682951,0
E00692,6.704140675e-05,0
E00693,0.8395832837,1
E00694,0.0001142688497,0
E00695,0.3897387804,0
E00696,4.912018198e-05,0
E00697,0.005814351924,0
E00698,4.898092019e-05,0
E00699,2.021936329e-05,0
E00700,0.001320577146,0
E00701,7.432176363e-05,0
E00702,0.0266912461,0
E00703,0.001615127716,0
E00704,0.0002819085604,0
E00705,0.006577341193,0
E00706,0.001123499436,0
E00707,7.18193364e-05,0
E00708,0.00305608441,0
E00709,6.050020089e-05,0
E00710,0.0007049905963,0
E00711,6.394430482e-05,0
E00712,0.4070825925,0
E00713,0.0001188359317,0
E00714,0.003777808205,0
E00715,0.0001621591336,0
E00716,0.0001733476035,0
E00717,0.000209144349,0
E00718,7.840301957e-05,0
E00719,0.001809066812,0
E00720,0.07293720901,0
E00721,0.9866640056,1
E00722,6.597996492e-05,0
E00723,6.739240223e-05,0
E00724,0.01222471347,0
E00725,0.0195383331,0
E00726,3.311860695e-05,0
E00727,0.005610405526,0
E00728,3.0303916e-05,0
E00729,0.01734148805,0
E00730,0.001527125226,0
E00731,0.0008548130069,0
E00732,0.0008618922115,0
E00733,0.0003356877043,0
E00734,0.05404498596,0
E00735,7.941743015e-05,0
E00736,0.3240684112,0
E00737,4.583048535e-05,0
E00738,2.68250253e-05,0
E00739,1.862780632e-05,0
E00740,0.0006378243579,0
E00741,0.0001709313303,0
E00742,0.00314612944,0
E00743,0.001085627784,0
E00744,0.00175431776,0
E00745,0.9752906537,1
E00746,9.328827958e-05,0
E00747,1.479922398e-05,0
E00748,0.0008440547922,0
E00749,4.699282433e-05,0
E00750,2.912375773e-05,0
E00751,0.0009618764826,0
E00752,7.177721243e-05,0
E00753,5.620926475e-05,0
E00754,8.787941126e-05,0
E00755,0.000386379701,0
E00756,0.0002140935504,0
E00757,0.0003509462513,0
E00758,0.0001415535759,0
E00759,0.03098246586,0
E00760,2.670793781e-05,0
E00761,0.008534831504,0
E00762,0.0009835924244,0
E00763,0.00608549411,0
E00764,4.005129779e-05,0
E00765,2.791581183e-05,0
E00766,0.0002054250914,0
E00767,0.0005247130916,0
E00768,0.0007309284876,0
E00769,0.00019830042,0
E00770,0.004025038876,0
E00771,0.002275790473,0
E00772,6.358994017e-05,0
E00773,0.0004144107901,0
E00774,0.0001043609763,0
E00775,6.329426665e-05,0
E00776,0.0002642028887,0
E00777,0.0001552917221,0
E00778,0.0003366292283,0
E00779,0.0002793802666,0
E00780,5.158293679e-05,0
E00781,6.246413298e-05,0
E00782,0.2345482563,0
E00783,6.385975382e-05,0
E00784,0.0004454299661,0
E00785,0.0001325742997,0
E00786,0.0002449915672,0
E00787,0.004070864123,0
E00788,0.001191691953,0
E00789,0.007068063775,0
E00790,0.000556249453,0
E00791,0.00390235325,0
E00792,0.001687379719,0
E00793,0.000154490662,0
E00794,1.674728248e-05,0
E00795,4.813338571e-05,0
E00796,0.0001852095743,0
E00797,0.005390145738,0
E00798,0.001384293145,0
E00799,0.001010037875,0
E00800,0.0003084643552,0
E00801,0.0001011535341,0
E00802,9.952754751e-05,0
E00803,0.0002484012915,0
E00804,0.0001230605851,0
E00805,0.0003447759344,0
E00806,2.9787713e-05,0
E00807,8.185502292e-05,0
E00808,0.0001005779321,0
E00809,0.002436113645,0
E00810,0.1078259129,0
E00811,0.0004092319774,0
E00812,4.442037527e-05,0
E00813,0.0001209035501,0
E00814,0.0001327201378,0
E00815,0.02956826455,0
E00816,0.0253614453,0
E00817,0.0007438206416,0
E00818,0.001856914262,0
E00819,0.0002682626588,0
E00820,0.0001997902756,0
E00821,0.0002793068024,0
E00822,0.006000129985,0
E00823,2.522117879e-05,0
E00824,0.0001717891469,0
E00825,5.824817042e-05,0
E00826,3.770016039e-05,0
E00827,4.464751163e-05,0
E00828,0.0001372359082,0
E00829,0.000255890388,0
E00830,2.490673723e-05,0
E00831,0.01431552068,0
E00832,9.875878644e-05,0
E00833,2.702733568e-05,0
E00834,3.25182434e-05,0
E00835,2.383909695e-05,0
E00836,0.0004233143302,0
E00837,0.0002332329833,0
E00838,0.0001573171335,0
E00839,6.680779772e-05,0
E00840,0.001851519681,0
E00842,0.0002006364289,0
E00844,6.066438697e-05,0
E00845,4.589267641e-05,0
E00846,6.119472038e-05,0
E00847,4.379920917e-05,0
E00848,6.43887107e-05,0
E00849,0.00117477461,0
E00850,5.838001412e-05,0
E00851,2.911311533e-05,0
E00852,0.01263658697,0
E00853,0.0002311896727,0
E00854,0.0001023725389,0
E00855,0.0001403223094,0
E00856,8.302302671e-05,0
E00858,0.001170758221,0
E00859,4.379920917e-05,0
E00860,5.45852145e-05,0
E00861,6.550120308e-05,0
E00862,0.0001816689385,0
E00863,0.0001106505659,0
E00864,0.740650761,0
E00865,0.0003045477536,0
E00866,0.0005006632402,0
E00867,8.109923184e-05,0
E00868,0.02099145423,0
E00869,6.956499978e-05,0
E00870,7.890664188e-05,0
E00871,0.001131179818,0
E00872,0.0001167508129,0
E00873,1.517125505e-05,0
E00874,0.002086845784,0
E00875,0.000345970649,0
E00876,0.0004385755112,0
E00877,0.2141874369,0
E00878,0.0002265894418,0
E00879,2.433592605e-05,0
E00880,5.535166015e-05,0
E00881,3.569138869e-05,0
E00882,0.04679133737,0
E00883,7.265470738e-05,0
E00884,9.725563756e-05,0
E00885,0.0001696095339,0
E00886,0.0002237074189,0
E00887,0.000627395152,0
E00888,0.005744076955,0
E00889,0.0003867177671,0
E00890,0.0006342696349,0
E00891,0.000103035444,0
E00892,0.0001189443022,0
E00893,2.342240577e-05,0
E00894,0.0006547509195,0
E00895,0.0004153155545,0
E00896,0.008985156446,0
E00897,0.01818474651,0
E00898,0.0001477565973,0
E00899,0.0001479313703,0
E00900,0.0001666897297,0
E00901,0.0001642185604,0
E00902,0.0001902877958,0
E00903,0.7765143062,0
E00904,3.49261844e-05,0
E00905,2.763103309e-05,0
E00907,0.001177819709,0
E00908,5.605806184e-05,0
E00909,0.0002900959621,0
E00910,0.0004768411242,0
E00912,6.158697633e-05,0
E00913,0.2794559373,0
E00914,0.000115177008,0
E00916,0.0001980062033,0
E00917,0.001771450348,0
E00918,5.035283573e-05,0
E00919,6.963150408e-05,0
E00920,0.0005096253227,0
E00921,3.603474786e-05,0
E00922,0.0001840077533,0
E00923,0.0001475094957,0
E00924,8.611879437e-05,0
E00925,0.0002769592589,0
E00926,0.0004487284686,0
E00927,6.173960203e-05,0
E00928,0.0002845956492,0
E00929,0.004480255602,0
E00930,0.0002850422218,0
E00931,0.001498948738,0
E00932,0.9628619827,1
E00933,0.001342312879,0
E00934,5.970685712e-05,0
E00935,6.658285151e-05,0
E00936,0.004063388819,0
E00937,9.48974654e-05,0
E00938,6.009871389e-05,0
E00939,0.0001485743645,0
E00940,0.000961750147,0
E00941,0.004855351037,0
E00942,9.108861885e-05,0
E00943,0.0003651904657,0
E00944,0.0008056325431,0
E00945,0.008647152637,0
E00946,0.009960337186,0
E00948,2.240350912e-05,0
E00949,0.000961750147,0
E00950,0.0001485743645,0
E00951,0.004855351037,0
E00952,7.727041404e-05,0
E00953,3.132945147e-05,0
E00954,0.9968716539,1
E00955,0.0001171305445,0
E00956,0.0008056325431,0
E00957,0.0002932582918,0
E00958,5.51162821e-05,0
E00959,0.008993638018,0
E00960,5.623039043e-05,0
E00961,0.002202971409,0
E00962,1.995984567e-05,0
E00963,4.508109168e-05,0
E00964,0.0007239680156,0
E00965,0.001066029332,0
E00966,0.001671651989,0
E00967,2.493617735e-05,0
E00969,0.0001626437739,0
E00970,0.01408083544,0
E00971,8.121060096e-05,0
E00972,3.437316364e-05,0
E00974,0.001002000983,0
E00975,5.89251234e-05,0
E00976,0.0001532525494,0
E00977,4.172536765e-05,0
E00978,4.716742024e-05,0
E00979,0.00255837349,0
E00980,1.489240844e-05,0
E00981,0.0001375302085,0
E00982,3.884011489e-05,0
E00983,0.004682302161,0
E00984,0.001190392922,0
E00985,0.0001168961773,0
E00986,0.003231039888,0
E00987,0.9950074754,1
E00988,7.702023056e-05,0
E00989,0.0008333251556,0
E00990,0.0007326716723,0
E00991,0.0008139243791,0
E00992,0.0002609372156,0
E00993,0.0001488459816,0
E00994,0.0001933343734,0
E00995,0.004828849376,0
E00997,0.0002932898026,0
E00998,0.01003894885,0
E00999,2.05951722e-05,0
E09000,0.001565634632,0
E09001,0.81890851,1
E09002,5.727570759e-05,0
E09003,5.663233219e-05,0
E09004,0.001215292758,0
E09005,0.009754990508,0
E09006,1.872019973e-05,0
E09007,2.542701565e-05,0
E09008,0.9958640602,1
E09009,0.001068884995,0
E09010,0.000587263406,0
E09011,0.0008573347781,0
E09012,0.0001890456839,0
E09013,0.003312044019,0
E09014,0.004779324235,0
E09015,0.4719129562,0
E09016,0.001271257764,0
E09017,7.971591856e-05,0
E09018,0.001316914796,0
E09019,4.638414919e-05,0
E09020,0.00680749967,0
E09021,8.660444507e-05,0
E09022,0.0012902078,0
E09023,0.0001229769851,0
E09024,0.0001460116499,0
E09025,0.0498872851,0
E09026,0.0001658884232,0
E09027,3.764747977e-05,0
E09028,0.0002830743584,0
E09029,6.35000792e-05,0
E09030,0.0001169152427,0
E09031,7.130276134e-05,0
E09032,8.732268543e-05,0
E09033,7.838643756e-05,0
E09034,0.05368439804,0
E09035,0.0004143038689,0
E09036,0.0004143038689,0
E09037,0.006041363421,0
E09038,0.0003175231564,0
E09039,7.507087126e-05,0
E09040,5.995223888e-05,0
E09041,0.0002258853179,0
E09042,0.0004219602058,0
E09043,0.0001700757041,0
E09044,0.0001698670708,0
E09045,0.0001909032904,0
E09046,0.001631641043,0
E09047,6.639505448e-05,0
E09048,0.000121484023,0
E09049,0.0001485266621,0
E09050,0.002721858871,0
E09051,0.000121843874,0
E09053,0.007910212916,0
E09054,6.231447262e-05,0
E09055,0.9919792579,1
E09056,0.0004493675738,0
E09057,2.171500295e-05,0
E09058,0.008621131328,0
E09059,0.008989520217,0
E09060,7.765024702e-05,0
E09061,0.0002747128327,0
E09062,0.0002213626818,0
E09064,0.0001384067777,0
E09065,0.0002725609901,0
E09066,0.0006358922952,0
E09068,0.0001064254787,0
E09069,0.01675893316,0
E09070,0.0001650106303,0
E09071,0.0002506581163,0
E09072,0.0002118474852,0
E09073,1.868715572e-05,0
E09074,0.006596385649,0
E09075,0.0001067579032,0
E09076,7.366269098e-05,0
E09077,0.7726218653,0
E09078,0.9239010664,1
E09079,0.0150786654,0
E09080,0.003382582585,0
E09081,0.05886356896,0
E09082,0.001555657515,0
E09084,0.6855011168,0
E09085,0.005968731767,0
E09086,3.835704594e-05,0
E09087,0.0001579257534,0
E09088,0.03807159836,0
E09089,4.326909451e-05,0
E09090,7.599544479e-05,0
E09091,0.0001167439394,0
E09092,0.00593494426,0
E09093,5.526864032e-05,0
E09094,6.309929957e-05,0
E09095,6.780963173e-05,0
E09096,3.734255946e-05,0
E09097,0.9778710083,1
E09098,2.721301378e-05,0
E09099,0.9904748774,1
E09100,0.001601430035,0
E09101,2.600983254e-05,0
E09102,1.391275888e-05,0
E09103,0.001028214245,0
E09104,0.005647175489,0
E09105,4.220530219e-05,0
E09106,0.001107762639,0
E09107,0.0007939240583,0
E09108,0.0001685017467,0
E09109,3.681777989e-05,0
E09110,0.0003572522893,0
E09111,0.09974054809,0
E09112,2.40801684e-05,0
E09113,0.001852675039,0
E09114,0.000147956704,0
E09115,0.7363536648,0
E09116,2.83170573e-05,0
E09117,2.080004102e-05,0
E09118,0.0002068942211,0
E09119,6.689625011e-05,0
E09120,0.001731045592,0
E09121,5.112468269e-05,0
E09122,0.001456166521,0
E09123,0.0001716396668,0
E09124,0.0001725471197,0
E09125,0.01032276168,0
E09126,4.489509362e-05,0
E09127,0.0006606442347,0
E09128,8.217452942e-05,0
E09129,0.0002216443692,0
E09130,0.005418650667,0
E09131,0.0001093649219,0
E09132,0.003831267186,0
E09133,0.09119975688,0
E09134,0.002131864979,0
E09135,7.513325279e-05,0
E09136,2.767849531e-05,0
E09137,0.7862716203,0
E09138,0.0002946405928,0
E09139,0.0002923890909,0
E09140,0.0127997349,0
E09141,0.01922721866,0
E09142,9.561532235e-05,0
E09143,0.0001009017265,0
E09144,0.0002238684411,0
E09145,0.7888530283,0
E09146,0.0005340680142,0
E09147,0.0001457193046,0
E09148,6.482095441e-05,0
E09149,1.187616955e-05,0
E09150,7.346199273e-05,0
E09151,0.0003717420258,0
E09152,3.979939883e-05,0
E09153,0.0005463527153,0
E09154,0.0001689063188,0
E09155,0.0003717102215,0
E09156,0.0001408000902,0
E09157,0.0009583623234,0
E09158,4.005974531e-05,0
E09159,0.0002141453441,0
E09160,0.004681924216,0
E09161,0.0002055566985,0
E09162,0.0004414790203,0
E09163,5.805298674e-05,0
E09164,0.01883456169,0
E09165,0.0001555638037,0
E09166,0.0009217587703,0
E09167,0.0001136643886,0
E09168,0.01615356581,0
E09169,0.0003420440181,0
E09170,0.7484439264,0
E09171,0.04554454386,0
E09172,1.692418996e-05,0
E09173,0.04929255033,0
E09174,0.0003482067505,0
E09175,2.396200089e-05,0
E09176,0.005465738994,0
E09177,3.223222881e-05,0
E09178,0.001441688812,0
E09179,0.3322813555,0
E09180,3.879852367e-05,0
E09181,2.746670488e-05,0
E09182,0.0008074360839,0
E09183,0.003682785388,0
E09184,2.536518601e-05,0
E09185,0.0005539816718,0
E09186,0.002324883543,0
E09187,0.0002787196259,0
E09188,8.901511954e-05,0
E09189,4.585115889e-05,0
E09190,0.000183575504,0
E09191,0.0007408988613,0
E09192,0.0004950862609,0
E09193,0.0005258136178,0
E09194,0.01013627247,0
E09195,3.768035877e-05,0
E09196,0.0004305936152,0
E09197,0.0002946737753,0
E09198,0.0001994994781,0
E09199,0.00200813884,0
E09200,0.0003471179912,0
E09201,0.0002122489314,0
E09202,0.0007568099197,0
E09203,0.0001777414373,0
E09204,0.003529758967,0
E09205,8.998788487e-05,0
E09206,0.001655612959,0
E09207,0.0001763534804,0
E09208,0.002978548837,0
E09209,8.260406603e-05,0
E09210,0.005921757646,0
E09211,0.001004475554,0
E09212,3.530894032e-05,0
E09213,0.0001589072919,0
E09214,0.0002027535788,0
E09215,4.548338769e-05,0
E09216,0.0001136140753,0
E09217,0.002846771751,0
E09218,0.00010964486,0
E09219,0.0002142425326,0
E09220,9.926693117e-05,0
E09221,0.1335394455,0
E09222,0.7970171213,0
E09223,0.9410111714,1
E09224,0.2347658628,0
E09225,0.001223430108,0
E09226,3.907914162e-05,0
E09227,0.0001866216776,0
E09228,0.7724910907,0
E09229,0.002703074949,0
E09230,0.0003684010452,0
E09231,0.001689884299,0
E09232,9.52138595e-05,0
E09233,2.896255474e-05,0
E09234,5.94700921e-05,0
E09235,3.090074653e-05,0
E09236,6.391789752e-05,0
E09237,3.013749794e-05,0
E09238,5.314005926e-05,0
E09239,0.0001220050004,0
E09240,0.0002437198203,0
E09241,0.0001679478121,0
E09242,0.001875637888,0
E09243,6.240863092e-05,0
E09244,7.507632359e-06,0
E09245,7.036397871e-05,0
E09246,3.317216699e-05,0
E09247,0.0001357072657,0
E09248,0.01677561081,0
E09249,0.005353996329,0
E09250,0.01711214361,0
E09251,3.777180563e-05,0
E09252,0.007474735504,0
E09253,0.0002205573083,0
E09254,0.01497187725,0
E09255,0.0004131809773,0
E09256,6.251010677e-05,0
E09257,5.996334682e-05,0
E09258,0.3972007235,0
E09259,0.0004884656553,0
E09260,0.0002544632703,0
E09261,7.586388478e-05,0
E09262,0.0003353198583,0
E09263,4.856932207e-05,0
E09264,0.001221894881,0
E09265,0.02401765021,0
E09266,6.307344767e-05,0
E09267,8.004092446e-05,0
E09268,0.006407033211,0
E09269,0.0001189022167,0
E09270,0.0001222778693,0
E09271,0.0001061570229,0
E09272,0.0001414745048,0
E09273,4.429829417e-05,0
E09274,0.001478963142,0
E09275,0.1977738737,0
E09276,0.006250662017,0
E09277,0.0003728052473,0
E09278,8.279852205e-05,0
E09279,0.0001586069772,0
E09280,0.002448519949,0
E09281,3.132201997e-05,0
E09282,0.35886392,0
E09283,0.0003821815923,0
E09284,0.02302132452,0
E09285,0.6692381519,0
E09286,0.1782609375,0
E09287,0.0007398865989,0
E09288,0.0008601769507,0
E09289,0.01428156926,0
E09290,0.000272831039,0
E09291,0.0004488064026,0
E09292,0.4976721966,0
E09293,9.694959498e-05,0
E09294,0.001534330451,0
E09295,0.05924318854,0
E09296,0.3370264184,0
E09297,0.007128401993,0
E09298,0.008692350971,0
E09299,0.0003120424626,0
E09300,0.0004158139784,0
E09301,0.0004358064433,0
E09302,0.0001068197818,0
E09303,0.08433914644,0
E09304,5.607102502e-05,0
E09305,0.0305501217,0
E09306,0.0007456445796,0
E09307,0.5260703165,0
E09308,0.1256132161,0
E09309,0.006498167224,0
E09310,0.002202975696,0
E09311,0.0008100378661,0
E09312,0.2042572985,0
E09313,0.7304113153,0
E09314,0.0006058846479,0
E09315,5.698847202e-05,0
E09316,7.592658764e-05,0
E09317,0.003006324249,0
E09318,0.1126039294,0
E09319,0.03277407848,0
E09320,0.0007990364109,0
E09321,0.03259933181,0
E09322,0.9759160473,1
E09323,0.003352077141,0
E09324,0.0002767744805,0
E09325,0.0002452761846,0
E09326,0.002426857741,0
E09327,0.003467442161,0
E09328,0.003207509778,0
E09329,0.0001431308205,0
E09330,4.95041098e-05,0
E09331,7.368345643e-05,0
E09332,2.419913695e-05,0
E09333,0.0004929791293,0
E09334,0.000253881122,0
E09335,0.02766598662,0
E09336,0.0002929681156,0
E09337,0.9981624737,1
E09338,0.9451334694,1
E09339,0.9624739834,1
E09340,0.0004438409167,0
E09341,0.001580618654,0
E09342,0.000449130616,0
E09343,0.9906276135,1
E09344,0.0001024555022,0
E09345,0.001262414343,0
E09346,0.0001811336688,0
E09347,0.004290842435,0
E09348,2.695958956e-05,0
E09349,0.0006398430061,0
E09350,0.0006564845962,0
E09351,0.1224383498,0
E09352,4.692814715e-05,0
E09353,0.0007611297146,0
E09354,7.071649286e-05,0
E09355,8.099324829e-05,0
E09356,0.0002199458891,0
E09357,8.15387161e-05,0
E09358,0.0001349560935,0
E09359,0.0001602040073,0
E09360,4.319231289e-05,0
E09361,0.001162381011,0
E09362,0.009568188195,0
E09363,2.601650535e-05,0
E09364,0.0003177407444,0
E09365,0.003115827699,0
E09366,0.1173173424,0
E09367,0.000481416107,0
E09368,0.007898390262,0
E09369,0.003426695132,0
E09370,6.636829126e-05,0
E09371,1.938339445e-05,0
E09372,4.887837792e-05,0
E09373,5.239690787e-05,0
E09374,0.008064927923,0
E09375,0.0001143377644,0
E09376,0.005784967802,0
E09377,0.002330250675,0
E09378,0.0001058430336,0
E09379,0.4177066792,0
E09380,0.00287083812,0
E09381,8.504932824e-05,0
E09382,3.539763716e-05,0
E09383,6.612389962e-05,0
E09384,0.005236429796,0
E09385,0.0001961039674,0
E09386,0.0001058430336,0
E09387,0.03311779358,0
E09388,0.00287083812,0
E09389,7.199761851e-05,0
E09390,0.0007146188087,0
E09391,0.001309973293,0
E09392,0.0001582178979,0
E09393,3.150328773e-05,0
E09394,3.539763716e-05,0
E09395,0.0001961039674,0
E09396,0.00287083812,0
E09397,6.612389962e-05,0
E09398,0.001468180772,0
E09399,0.0001961039674,0
E09400,0.4177066792,0
E09401,0.8229303596,1
E09402,7.199761851e-05,0
E09403,0.001309973293,0
E09404,9.362661374e-05,0
E09405,0.937529253,1
E09406,0.02328271054,0
E09407,5.218984069e-05,0
E09408,3.586436761e-05,0
E09409,0.0008156097495,0
E09410,0.002179001605,0
E09411,7.578814717e-05,0
E09412,5.205971685e-05,0
E09413,4.548892183e-05,0
E09414,2.129410672e-05,0
E09415,0.0003788276554,0
E09416,0.0003687375617,0
E09417,0.0004877293367,0
E09418,9.030743951e-05,0
E09419,0.0003905949522,0
E09420,0.0002617643232,0
E09421,0.9983111076,1
E09422,0.001022495843,0
E09423,0.02787288237,0
E09424,8.97192036e-05,0
E09425,3.396991913e-05,0
E09426,7.537316776e-05,0
E09427,6.341156817e-05,0
E09428,2.791722469e-05,0
E09429,0.0001496590173,0
E09430,0.002965740945,0
E09431,0.0001785670861,0
E09432,2.897249506e-05,0
E09433,0.0005731126547,0
E09434,0.00661975056,0
E09435,0.0003245095258,0
E09436,0.0001496590173,0
E09437,0.00073123301,0
E09438,0.0001785670861,0
E09439,0.0003243242124,0
E09440,0.0001058707232,0
E09441,0.8125774803,1
E09442,4.771578744e-05,0
E09443,0.0003245095258,0
E09444,0.0003158106994,0
E09445,0.0005837420801,0
E09446,0.002012030139,0
E09447,0.001958610522,0
E09448,0.0001789055918,0
E09449,0.001075371699,0
E09450,7.238833915e-05,0
E09451,0.002797302466,0
E09452,0.00817269147,0
E09453,0.0002814853866,0
E09454,0.001410213979,0
E09455,5.93134144e-05,0
E09456,0.002174183361,0
E09457,0.001850574949,0
E09458,0.001701722661,0
E09459,0.04564102034,0
E09460,0.00995483979,0
E09461,0.01419800249,0
E09462,0.0007954560693,0
E09463,2.773020295e-05,0
E09464,0.00034034776,0
E09465,0.0002253775715,0
E09466,4.694828671e-05,0
E09467,2.540237943e-05,0
E09468,0.0002125712275,0
E09469,0.3231368844,0
E09470,0.0005118269996,0
E09471,7.543985848e-05,0
E09472,5.108310096e-05,0
E09473,0.0005391637123,0
E09474,7.126312755e-05,0
E09475,0.0002202344155,0
E09476,0.985062296,1
E09477,0.0001955841829,0
E09478,2.523310512e-05,0
E09479,0.0004657987981,0
E09480,0.9919358416,1
E09481,7.732895357e-05,0
E09482,2.047890035e-05,0
E09483,9.566015374e-05,0
E09484,4.086906549e-05,0
E09485,0.0006263416963,0
E09486,8.818000201e-05,0
E09487,3.195766559e-05,0
E09488,0.0004030646463,0
E09489,0.000123874105,0
E09490,3.472757862e-05,0
E09491,0.997279237,1
E09492,0.0002008948294,0
E09493,5.306636421e-05,0
E09494,4.516608615e-05,0
E09495,0.03400226789,0
E09496,3.928047945e-05,0
E09497,0.0001286563646,0
E09498,0.0008328832415,0
E09499,0.3126184674,0
E09500,0.01331635925,0
E09501,0.001345717733,0
E09502,0.007582097753,0
E09503,0.0005224346082,0
E09504,0.0002493936888,0
E09505,9.334825383e-05,0
E09506,0.003315223346,0
E09507,9.688130149e-05,0
E09508,0.004622534107,0
E09509,0.4797207491,0
E09510,7.88099939e-05,0
E09511,7.653835835e-05,0
E09512,0.004374543195,0
E09513,0.002385127014,0
E09514,2.939897232e-05,0
E09515,2.724393961e-05,0
E09516,0.0003217927041,0
E09517,0.00228559936,0
E09518,0.3107870505,0
E09519,8.811381377e-05,0
E09520,7.064841184e-05,0
E09521,2.205978546e-05,0
E09522,0.0308841459,0
E09523,5.138542478e-05,0
E09524,5.481811561e-05,0
E09525,0.0003663106018,0
E09526,0.005497536807,0
E09527,5.602505739e-05,0
E09528,8.315573454e-05,0
E09529,9.915819246e-05,0
E09530,0.0009887330205,0
E09531,0.001293621058,0
E09532,0.6215729595,0
E09533,0.001654027445,0
E09534,0.0001675525625,0
E09535,0.0002739436951,0
E09536,0.0001486306035,0
E09537,5.110147638e-05,0
E09538,0.06191380979,0
E09539,0.0001301031355,0
E09540,0.007599114269,0
E09541,0.004109311513,0
E09542,3.657726045e-05,0
E09543,5.590015264e-05,0
E09544,0.0002892033862,0
E09545,0.0004176639561,0
E09546,0.04536988778,0
E09547,0.002272909616,0
E09548,0.005108773866,0
E09549,0.001175833685,0
E09550,0.01859313621,0
E09551,6.810829065e-05,0
E09552,0.002914146973,0
E09553,0.001397919697,0
E09554,0.000147591321,0
E09555,9.463887923e-05,0
E09556,5.821417207e-05,0
E09557,0.0001324057442,0
E09558,5.944371406e-05,0
E09559,2.865988427e-05,0
E09560,0.0003776444503,0
E09561,0.0008978587406,0
E09562,6.011887242e-05,0
E09563,0.0001008262852,0
E09564,0.0004575881272,0
E09565,0.0001089012952,0
E09566,9.346162423e-05,0
E09567,0.0004713815128,0
E09568,0.1971826576,0
E09569,0.05112092778,0
E09570,0.001053366705,0
E09571,0.9977489891,1
E09572,5.627641075e-05,0
E09573,0.0002455756211,0
E09574,2.260723287e-05,0
E09575,0.2123026955,0
E09576,0.05543643585,0
E09577,0.0001882638158,0
E09578,0.0001848832808,0
E09579,0.002059946926,0
E09580,0.001934798479,0
E09581,0.0003504059293,0
E09582,0.1094904649,0
E09583,0.001886449893,0
E09584,0.5378507872,0
E09585,0.3282389516,0
E09586,5.35127899e-05,0
E09587,0.003703190803,0
E09588,0.001547171657,0
E09589,8.886088268e-05,0
E09590,0.0002607389036,0
E09591,0.0009700880931,0
E09592,0.0007372827303,0
E09593,0.0001022124669,0
E09594,0.01183935791,0
E09595,0.0005647565502,0
E09596,8.169421383e-05,0
E09597,0.0002447216338,0
E09598,5.804498634e-05,0
E09599,0.000258419454,0
E09600,0.02322755148,0
E09601,0.0001714217882,0
E09602,0.009858837769,0
E09603,0.1954872772,0
E09604,0.0001274855885,0
E09605,0.9881933889,1
E09606,0.004998775258,0
E09607,0.009215683168,0
E09608,0.009066836746,0
E09609,0.0001907744533,0
E09610,0.001051944213,0
E09611,4.550277634e-05,0
E09612,0.0003919362995,0
E09613,9.953963469e-06,0
E09614,0.0001095272756,0
E09615,7.729496065e-05,0
E09616,0.007504899501,0
E09617,0.002720268541,0
E09618,8.593997968e-05,0
E09619,3.919242877e-05,0
E09620,0.000176585723,0
E09621,0.003324967439,0
E09622,0.0009149597818,0
E09623,2.754392427e-05,0
E09624,0.0002571980756,0
E09625,0.0003107008286,0
E09626,0.000617525912,0
E09627,0.000278862085,0
E09628,0.002348476707,0
E09629,0.0006303897763,0
E09630,0.0007313678599,0
E09631,0.0005757594657,0
E09632,4.241865878e-05,0
E09633,0.0002564857216,0
E09634,0.00634912545,0
E09635,0.001650118159,0
E09636,0.0002017951741,0
E09637,0.0001753127661,0
E09638,0.0003875494073,0
E09639,7.555385058e-05,0
E09640,0.00214575032,0
E09641,0.0003555678386,0
E09642,0.0002359995882,0
E09643,5.305304038e-05,0
E09644,0.002285058088,0
E09645,6.008381135e-05,0
E09646,0.0008882287496,0
E09647,0.03144017469,0
E09648,0.007386946657,0
E09649,0.0005266023905,0
E09650,0.5944584612,0
E09651,0.02178149179,0
E09652,0.0009267951942,0
E09653,0.0002886409533,0
E09654,0.0001615700747,0
E09655,0.0004111137811,0
E09656,0.000696150513,0
E09657,0.9399567357,1
E09658,0.1016770381,0
E09659,7.830225638e-05,0
E09660,5.711596488e-05,0
E09661,0.8549829908,1
E09662,0.006037317343,0
E09663,0.0001659633431,0
E09664,0.0002190032609,0
E09665,0.002690002095,0
E09666,0.0005294374383,0
E09667,0.01285311087,0
E09668,0.0003728639089,0
E09669,0.0001913488939,0
E09670,0.111366045,0
E09671,9.538267492e-05,0
E09672,0.01245344311,0
E09673,2.156776223e-05,0
E09674,0.9155861673,1
E09675,1.526764174e-05,0
E09676,0.0001215726125,0
E09677,9.140190719e-05,0
E09678,1.966036167e-05,0
E09679,5.319723625e-05,0
E09680,0.0001762451044,0
E09681,0.009733303964,0
E09682,0.0001396132958,0
E09683,4.271536226e-05,0
E09684,0.0002344029738,0
E09685,0.0003266022537,0
E09686,9.19146554e-05,0
E09687,4.499537158e-05,0
E09688,8.260586689e-05,0
E09689,0.00832244657,0
E09690,0.02096016564,0
E09691,0.0003159269413,0
E09692,0.06630073712,0
E09693,0.001069660604,0
E09694,0.01048356554,0
E09695,0.0002267372131,0
E09696,0.005280938001,0
E09697,4.293638968e-05,0
E09698,7.282089386e-05,0
E09699,0.0002932504919,0
E09700,0.006009460024,0
E09701,0.002433485172,0
E09702,7.745009187e-05,0
E09703,2.758833955e-05,0
E09704,3.29749495e-05,0
E09705,0.0002378626696,0
E09706,2.684721897e-05,0
E09707,5.301821603e-05,0
E09708,7.611881512e-05,0
E09709,0.000189256223,0
E09710,0.0002320415286,0
E09711,0.0001267102035,0
E09712,0.001130734986,0
E09713,4.48702462e-05,0
E09714,0.9813389425,1
E09715,0.9969946305,1
E09716,0.0005839663162,0
E09717,0.001919064309,0
E09718,0.0002706323863,0
E09719,0.01133477827,0
E09720,4.410498298e-05,0
E09721,0.0001103682991,0
E09722,0.02105267216,0
E09723,0.940246039,1
E09724,0.001005571131,0
E09725,0.001522722667,0
E09726,1.202129652e-05,0
E09727,0.0001570458563,0
E09728,6.468643172e-05,0
E09729,0.0001073179301,0
E09730,4.064398098e-05,0
E09731,0.003062142726,0
E09732,0.784663568,0
E09733,0.005373167079,0
E09734,0.0003087902253,0
E09735,3.885057568e-05,0
E09736,0.000130108528,0
E09737,0.0001706236046,0
E09738,0.0009023468685,0
E09739,6.285991239e-05,0
E09740,0.005422475159,0
E09741,0.7251302274,0
E09742,0.0002814703352,0
E09743,0.0001163556921,0
E09744,4.585254445e-05,0
E09745,6.91414267e-05,0
E09746,3.161130755e-05,0
E09747,0.0001170793445,0
E09748,0.0005905913429,0
E09749,0.0001890691475,0
E09750,0.0003245302431,0
E09751,0.06354582374,0
E09752,0.1769833717,0
E09753,0.0001005210309,0
E09754,0.0001345309048,0
E09755,0.002572463305,0
E09756,0.0005648963991,0
E09757,5.630751804e-05,0
E09758,2.485295914e-05,0
E09759,0.0004769383129,0
E09760,0.2175185721,0
E09761,0.1435616128,0
E09762,0.001250335989,0
E09763,3.82774075e-05,0
E09764,0.001210422928,0
E09765,0.001237794238,0
E09766,0.0001221838715,0
E09767,0.004812339935,0
E09768,7.676050601e-05,0
E09769,0.000111751791,0
E09770,3.750134143e-05,0
E09771,0.0004377879743,0
E09772,0.0007221918921,0
E09773,9.06156113e-05,0
E09774,2.300236826e-05,0
E09775,0.0008127671753,0
E09776,0.9455511715,1
E09777,0.003866472778,0
E09778,0.0001332517256,0
E09779,0.001972925238,0
E09780,0.0001590255415,0
E09781,0.01652416602,0
E09782,0.0004204089838,0
E09783,0.0002928852102,0
E09784,0.0004878535956,0
E09785,0.0002616651146,0
E09786,7.138769625e-05,0
E09787,0.8259343126,1
E09788,0.0003101307486,0
E09789,0.0001830806044,0
E09790,0.0003557156297,0
E09791,0.005185376199,0
E09792,9.548975543e-05,0
E09793,0.0004897851181,0
E09794,2.997672309e-05,0
E09795,0.0003416631878,0
E09796,0.0005189762971,0
E09797,0.001966566552,0
E09798,0.0003505373111,0
E09799,0.0007598640884,0
E09800,0.0002345794281,0
E09801,3.290028269e-05,0
E09802,0.0009282779978,0
E09803,0.001235136586,0
E09804,7.869191565e-05,0
E09805,9.055297155e-05,0
E09806,0.0005246976109,0
E09807,0.3439943527,0
E09808,0.0002826138983,0
E09809,0.0008617190389,0
E09810,0.0002186071484,0
E09811,4.750777156e-05,0
E09812,6.184384928e-05,0
E09813,0.001979738328,0
E09814,0.001353349166,0
E09815,0.0004441937799,0
E09816,6.20976096e-05,0
E09817,0.001478404084,0
E09818,0.000176066031,0
E09819,0.0003763429076,0
E09820,0.0003155731507,0
E09821,0.0006840567756,0
E09822,6.926455781e-05,0
E09823,0.02278954447,0
E09824,0.0001101830784,0
E09825,0.2388208922,0
E09826,0.0001254663658,0
E09827,1.240887282e-05,0
E09828,0.008964527015,0
E09829,2.819232988e-05,0
E09830,0.0001650957753,0
E09831,0.1869264092,0
E09832,0.001925949017,0
E09833,0.02072160503,0
E09834,0.0001070889816,0
E09835,5.214023371e-05,0
E09836,0.0008465307333,0
E09837,0.7378334126,0
E09838,0.0001588523661,0
E09839,0.0001451379359,0
E09840,0.0003216128294,0
E09841,0.0005705741783,0
E09842,0.003340295796,0
E09843,0.0006893868637,0
E09844,8.798961392e-05,0
E09845,6.138621303e-05,0
E09846,0.0004266448886,0
E09847,0.005635270823,0
E09848,0.0001707300932,0
E09849,9.779146144e-05,0
E09850,0.0003949702821,0
E09851,7.84039476e-05,0
E09852,4.729124436e-05,0
E09853,0.0001331398412,0
E09854,3.341046988e-05,0
E09855,0.4914426591,0
E09856,0.0002193678607,0
E09857,0.001055466358,0
E09858,0.000104289847,0
E09859,0.9085290283,1
E09860,0.03800543079,0
E09861,0.0002283664691,0
E09862,0.0003891326375,0
E09863,0.0002517487176,0
E09864,0.04215422836,0
E09865,0.000144766269,0
E09866,0.009861145054,0
E09867,0.007814921054,0
E09868,2.82772319e-05,0
E09869,5.935008842e-05,0
E09870,0.0003410512846,0
E09871,0.0004311657944,0
E09872,0.0008501521805,0
E09873,0.003691631269,0
E09874,0.002817031007,0
E09875,9.964664034e-05,0
E09876,0.008887233668,0
E09877,0.002765138802,0
E09878,6.378084075e-05,0
E09879,2.880078727e-05,0
E09880,0.00393612917,0
E09882,0.0001354534499,0
E09883,0.001164392525,0
E09884,0.05423640509,0
E09885,0.0008713564407,0
E09886,0.7531006696,0
E09887,0.9259560001,1
E09888,0.0004227076223,0
E09889,8.963502009e-05,0
E09890,3.19778344e-05,0
E09891,7.062624921e-05,0
E09892,0.002585365265,0
E09893,0.0001266978676,0
E09894,0.002890643509,0
E09895,0.0002975296415,0
E09896,0.0002060027854,0
E09897,4.735612883e-05,0
E09898,0.6677237396,0
E09899,0.02891387078,0
E09900,0.000319933061,0
E09901,8.998169921e-05,0
E09902,0.001291671995,0
E09903,4.393259548e-05,0
E09905,0.016961691,0
E09906,7.008802174e-05,0
E09907,0.006867550413,0
E09908,0.0001470008383,0
E09909,0.1033600106,0
E09910,0.00036722985,0
E09911,0.0003859091771,0
E09912,0.002165137948,0
E09913,0.03803183806,0
E09914,0.0001036851105,0
E09915,4.103816966e-05,0
E09916,2.268627008e-05,0
E09917,0.0001777512515,0
E09918,9.01201317e-05,0
E09919,0.0917999685,0
E09920,0.0001802806727,0
E09921,0.001785314216,0
E09922,0.0001360286033,0
E09924,0.001260270645,0
E09925,0.01048168126,0
E09926,0.004435974391,0
E09927,0.0004729296222,0
E09928,5.333303261e-05,0
E09929,0.003621778432,0
E09930,0.006577100017,0
E09931,0.0001835448541,0
E09932,5.101242077e-05,0
E09933,0.0001040989669,0
E09934,0.003412976513,0
E09935,0.04699745186,0
E09936,0.0002255018272,0
E09937,8.68897805e-05,0
E09938,0.01180481763,0
E09939,6.922728359e-05,0
E09940,0.0002034199078,0
E09941,2.068639552e-05,0
E09942,4.59354757e-05,0
E09944,4.583629058e-05,0
E09945,0.0003665508505,0
E09946,5.214615747e-05,0
E09947,7.077417521e-05,0
E09949,0.0007531525947,0
E09950,0.006034906934,0
E09951,5.559627116e-05,0
E09952,7.87576288e-05,0
E09953,0.0006080517042,0
E09954,0.0003258742475,0
E09955,0.000167849907,0
E09956,2.289067548e-05,0
E09957,8.307124786e-05,0
E09958,0.0005544288973,0
E09959,4.611556882e-05,0
E09960,0.9441595669,1
E09961,9.442631301e-05,0
E09962,4.639680744e-05,0
E09963,0.0007369841883,0
E09964,3.865449625e-05,0
E09966,0.0005280533878,0
E09967,0.002902340727,0
E09968,0.000149273506,0
E09969,0.0001100672891,0
E09970,0.001006967987,0
E09972,9.634335297e-05,0
E09973,0.0002453839126,0
E09974,0.000164159674,0
E09975,0.0008716507234,0
E09976,0.0005162880178,0
E09977,0.000220834563,0
E09978,4.361488828e-05,0
E09979,4.402467832e-05,0
E09981,0.0003659040108,0
E09982,0.115011878,0
E09984,0.0001817230503,0
E09985,0.0001194633247,0
E09986,0.8789448803,1
E09987,0.02039845674,0
E09990,0.0008406536805,0
E09991,2.734613669e-05,0
E09992,4.402467832e-05,0
E09993,0.0003659040108,0
E09994,0.115011878,0
E09995,3.841606034e-05,0
E09996,0.0001194633247,0
E09997,0.01127804471,0
E09998,5.542365113e-05,0
E09999,1.836499028e-05,0
E10000,0.0008527475162,0
E10001,8.84943823e-05,0
E10003,6.400440169e-05,0
E10004,0.0003039897434,0
E10005,0.001033573853,0
E10006,0.01948676749,0
E10007,0.3718127757,0
E10008,0.0002394169177,0
E10009,2.486985376e-05,0
E10010,5.61540663e-05,0
E10011,8.331774891e-05,0
E10012,0.002035003973,0
E10013,0.00142559054,0
E10014,0.007668186384,0
E10016,2.843491803e-05,0
E10017,0.0003303365514,0
E10019,0.0008057187814,0
E10020,0.0002843735417,0
E10021,0.00466147853,0
E10022,0.001544989851,0
E10023,0.001033573853,0
E10024,3.561457326e-05,0
E10025,5.296248071e-05,0
E10026,0.0003991594465,0
E10027,5.61540663e-05,0
E10028,0.0005908113405,0
E10029,0.1770877939,0
E10030,0.002035003973,0
E10031,0.2789683543,0
E10032,0.00142559054,0
E10033,0.005090208066,0
E10034,0.007668186384,0
E10036,0.0001620950284,0
E10037,0.0004640564401,0
E10038,4.912299991e-05,0
E10039,0.0030109826,0
E10040,5.062341321e-05,0
E10041,0.003109158876,0
E10042,0.501284362,0
E10043,0.0001173201647,0
E10044,6.440077132e-05,0
E10045,0.004045237659,0
E10046,0.0003434889356,0
E10047,0.000323823793,0
E10048,0.0003178297563,0
E10049,4.85226607e-05,0
E10050,0.0006742626072,0
E10051,0.0005139869781,0
E10052,0.0002799097701,0
E10053,0.0003598973681,0
E10054,0.03260832653,0
E10055,0.0001029403662,0
E10056,0.006296493861,0
E10057,0.007446378591,0
E10058,0.001056406802,0
E10059,0.0001632005721,0
E10060,6.619056352e-05,0
E10061,1.165936188e-05,0
E10062,0.001034021194,0
E10063,0.01592034799,0
E10064,0.04201131527,0
E10065,0.000163720273,0
E10066,0.004147118389,0
E10067,0.00114052007,0
E10068,4.604538427e-05,0
E10069,0.0001085048792,0
E10070,5.732273695e-05,0
E10071,4.908239048e-05,0
E10072,7.577646246e-05,0
E10073,0.000138371341,0
E10074,0.001161816055,0
E10075,2.754258625e-05,0
E10076,0.0001250005145,0
E10077,4.551419064e-05,0
E10078,0.000137172886,0
E10079,4.502466336e-05,0
E10080,0.005040234711,0
E10081,7.056213093e-05,0
E10082,0.0003270030266,0
E10083,3.582486387e-05,0
E10084,0.0001207023191,0
E10085,0.008667292703,0
E10086,0.02009864165,0
E10087,0.0001043904193,0
E10088,0.0001054894774,0
E10089,0.0001389167047,0
E10090,2.181648671e-05,0
E10091,0.0001127585369,0
E10092,0.9850496462,1
E10093,0.0001998992501,0
E10094,0.003282065152,0
E10095,0.0001205182992,0
E10096,4.449381201e-05,0
E10097,0.00100609338,0
E10098,8.896961902e-05,0
E10099,0.0009009522361,0
E10100,0.000153178722,0
E10101,0.001754984179,0
E10102,0.0001801506558,0
E10103,8.51768494e-05,0
E10104,0.3103568779,0
E10105,0.00124943486,0
E10106,0.0001428967129,0
E10107,0.0001482406886,0
E10108,0.0001341637307,0
E10109,6.114538148e-05,0
E10110,0.004770790453,0
E10111,0.0001816182105,0
E10112,4.754106654e-05,0
E10114,0.002091714158,0
E10115,8.496929371e-05,0
E10116,6.093624949e-05,0
E10117,3.670294798e-05,0
E10118,0.001809254918,0
E10119,0.0001438907964,0
E10120,0.009046082651,0
E10121,5.205516369e-05,0
E10122,0.0008227963619,0
E10123,0.0009336077279,0
E10124,0.001466892813,0
E10125,0.0004411456649,0
E10126,0.006030394628,0
E10127,0.0001618955418,0
E10128,0.0004200866586,0
E10129,0.0005651898846,0
E10130,0.0006253851937,0
E10131,0.005086309964,0
E10132,0.0003239684882,0
E10133,0.003078317336,0
E10134,0.0001317091819,0
E10135,0.004405704368,0
E10136,5.05590582e-05,0
E10137,1.830093134e-05,0
E10138,8.138655611e-05,0
E10139,4.709893703e-05,0
E10140,0.0001160358053,0
E10141,0.00149512789,0
E10142,1.234566823e-05,0
E10143,0.02654174007,0
E10144,0.009117566149,0
E10145,0.9776440889,1
E10146,0.000172013817,0
E10147,0.0004188108355,0
E10148,0.001610141967,0
E10149,9.901814614e-05,0
E10150,2.135388857e-05,0
E10151,3.888755026e-05,0
E10152,0.004500963298,0
E10153,9.866779125e-05,0
E10154,0.0007737924945,0
E10155,0.003313792655,0
E10156,5.609918492e-05,0
E10157,7.134457474e-05,0
E10158,0.1694225216,0
E10159,8.715183191e-05,0
E10160,4.139701827e-05,0
E10161,0.01805439785,0
E10162,3.172301437e-05,0
E10163,3.866488778e-05,0
E10164,0.0002325717668,0
E10165,8.995070878e-05,0
E10166,0.001824054359,0
E10167,5.878324895e-05,0
E10168,0.0001515828112,0
E10169,0.000590299239,0
E10170,9.931117672e-05,0
E10171,0.0008606977409,0
E10172,0.0005002999892,0
E10173,0.008396838949,0
E10174,0.0009168561335,0
E10175,0.002814999978,0
E10176,0.01717808676,0
E10177,2.170944916e-05,0
E10178,0.0001514264129,0
E10179,3.245806649e-05,0
E10180,0.0005779636516,0
E10181,0.0005847345485,0
E10182,0.01673693166,0
E10183,0.0006552049785,0
E10184,8.955394302e-05,0
E10185,0.0001956214909,0
E10186,0.0002072872584,0
E10187,0.961137896,1
E10188,0.001931738036,0
E10189,0.001152406502,0
E10190,4.154834379e-05,0
E10191,0.0002182696925,0
E10192,3.218875246e-05,0
E10193,0.01002240455,0
E10194,0.006949508477,0
E10195,4.227923416e-05,0
E10196,0.02540832774,0
E10197,0.0003797564122,0
E10198,1.858113234e-05,0
E10199,0.8747846844,1
E10200,0.7966009603,0
E10201,0.003647228137,0
E10202,0.001958524491,0
E10203,0.0001219320102,0
E10204,0.003384674794,0
E10205,9.458561413e-05,0
E10206,0.0003048109916,0
E10207,1.451824018e-05,0
E10208,0.0001379015793,0
E10209,0.0001643585588,0
E10210,0.0003267665978,0
E10211,0.0001527154165,0
E10212,0.001992714148,0
E10213,0.04086584601,0
E10214,0.0001464759584,0
E10215,0.000135142137,0
E10216,0.0004967878826,0
E10217,0.0004830435808,0
E10218,0.9943827402,1
E10219,4.744491601e-05,0
E10220,0.9953998823,1
E10221,0.0001877356007,0
E10222,5.621495658e-05,0
E10223,0.009948412061,0
E10224,0.000814187643,0
E10225,3.937374766e-05,0
E10226,0.0009733408547,0
E10227,0.147985746,0
E10228,0.001075518172,0
E10229,5.389115818e-05,0
E10230,0.001863900032,0
E10231,7.49625086e-05,0
E10232,0.000871421336,0
E10233,0.8537844933,1
E10234,0.08036200882,0
E10235,0.0008277949093,0
E10236,0.0001717056282,0
E10237,0.0001280259537,0
E10238,0.06042239754,0
E10239,5.8542647e-05,0
E10240,4.655548185e-05,0
E10241,7.148385196e-05,0
E10242,0.00053172351,0
E10243,0.0002799757359,0
E10244,0.0001555043203,0
E10245,6.375104265e-05,0
E10246,9.113683869e-05,0
E10247,0.0001057534443,0
E10248,9.504617844e-05,0
E10249,0.0001374769709,0
E10250,3.328879693e-05,0
E10251,0.8272634846,1
E10252,0.2256480124,0
E10253,1.718369846e-05,0
E10254,0.0001535489547,0
E10255,0.0002188315115,0
E10256,0.00204653132,0
E10257,0.5517371661,0
E10258,0.9402898288,1
E10259,2.407985901e-05,0
E10260,0.0003196843665,0
E10261,6.3884105e-05,0
E10262,3.397993315e-05,0
E10263,0.0004177717499,0
E10264,4.776237517e-05,0
E10265,0.0002262372058,0
E10266,1.845101525e-05,0
E10267,0.02429133932,0
E10268,5.943368158e-05,0
E10269,0.5095751655,0
E10270,3.945011208e-05,0
E10271,0.0001300907709,0
E10272,7.614274265e-05,0
E10273,0.008797460011,0
E10274,0.0003075981722,0
E10275,2.855108259e-05,0
E10276,0.0001718392977,0
E10277,0.0001407172352,0
E10278,0.9421975486,1
E10279,0.0002672935838,0
E10280,0.001119045623,0
E10281,6.302407924e-05,0
E10282,0.0001473937916,0
E10283,0.002161576744,0
E10284,7.622046799e-05,0
E10285,0.005687602032,0
E10286,0.0002243209718,0
E10287,6.744842305e-05,0
E10288,0.0001830267524,0
E10289,0.02090983508,0
E10290,2.474855852e-05,0
E10291,0.0002345325068,0
E10292,0.0006726011618,0
E10293,0.008611644218,0
E10294,8.329767591e-05,0
E10295,0.0001979101353,0
E10296,3.65631336e-05,0
E10297,0.0002446753055,0
E10298,0.006847976784,0
E10299,0.02888192623,0
E10300,4.924142251e-05,0
E10301,0.973510623,1
E10302,0.004873489522,0
E10303,3.953511334e-05,0
E10304,3.047649042e-05,0
E10306,0.001571416313,0
E10307,0.0002888719739,0
E10309,0.8911947207,1
E10310,3.524380165e-05,0
E10312,0.009307481994,0
E10313,0.1743019649,0
E10314,0.9788543412,1
E10315,6.690082259e-05,0
E10316,0.0003300126377,0
E10317,0.000137557634,0
E10318,0.0002763015316,0
E10321,0.003907714112,0
E10322,0.006718717483,0
E10323,0.00781638166,0
E10324,0.0005026383655,0
E10325,0.000558424904,0
E10326,0.009497356074,0
E10327,3.102336335e-05,0
E10328,0.006887690822,0
E10329,0.0005718118215,0
E10330,0.9842941711,1
E10331,0.0008768078217,0
E10332,0.0002310058564,0
E10333,0.001205216604,0
E10334,4.583629058e-05,0
E10335,0.0003665508505,0
E10336,0.0001410209839,0
E10337,0.0001275340656,0
E10338,0.01180481763,0
E10339,2.83450579e-05,0
E10340,6.350478023e-05,0
E10341,5.537393367e-05,0
E10342,0.0003843573635,0
E10343,0.0008297026682,0
E10344,0.0005368988621,0
E01000,2.767048865e-05,0
E01001,0.0001029600856,0
E01002,0.01070011663,0
E01003,0.00017053806,0
E01004,0.0009044181106,0
E01005,0.0001354727807,0
E01006,0.002715004118,0
E01007,0.002688944859,0
E01008,0.0001634114066,0
E01009,0.00313463032,0
E01010,0.002885654482,0
E01011,0.0005125083792,0
E01012,0.9561287438,1
E01013,0.0009282640386,0
E01014,6.397870485e-05,0
E01015,0.0003319924554,0
E01016,3.444682124e-05,0
E01017,0.000203825884,0
E01018,0.0004105687758,0
E01019,0.001859679341,0
E01020,0.5935760743,0
E01021,0.0002277528179,0
E01022,4.090626665e-05,0
E01023,0.0007349502159,0
E01024,4.082826992e-05,0
E01025,0.0001294821258,0
E01026,5.175674546e-05,0
E01027,0.005618074244,0
E01028,0.0001751386882,0
E01029,0.004404212215,0
E01030,0.0002102016456,0
E01031,2.916902279e-05,0
E01032,0.9668941167,1
E01033,0.0004249020768,0
E01034,0.0001043806745,0
E01035,0.000203553207,0
E01036,0.001300560816,0
E01037,7.645298212e-05,0
E01038,8.587608401e-05,0
E01039,0.0003285810441,0
E01040,0.0003062933039,0
E01041,5.446215525e-05,0
E01042,3.50688464e-05,0
E01043,5.268273938e-05,0
E01044,8.381341205e-05,0
E01045,0.0001650860547,0
E01046,0.0004155356728,0
E01047,0.0002271462745,0
E01048,0.0001027263409,0
E01049,0.0004799830993,0
E01050,0.0001402967711,0
E01051,0.002859198075,0
E01052,0.000111469627,0
E01053,0.0002682253366,0
E01054,0.0001791718001,0
E01055,0.0001589701121,0
E01056,9.694251492e-05,0
E01057,0.01722832768,0
E01058,4.084724273e-05,0
E01059,0.00411122188,0
E01060,0.06162752508,0
E01061,0.0002054542195,0
E01062,1.293480023e-05,0
E01063,0.0001743703771,0
E01065,8.430294529e-05,0
E01066,4.701939715e-05,0
E01067,0.0001450486488,0
E01068,0.0004933025518,0
E01069,2.652260801e-05,0
E01070,0.0001076294852,0
E01071,0.003691123677,0
E01072,0.0006143926697,0
E01073,0.003621512302,0
E01074,0.0005779134619,0
E01075,0.001541412221,0
E01076,4.650426718e-05,0
E01077,0.0004043893551,0
E01078,0.0001091703516,0
E01079,0.001924492324,0
E01080,5.484601729e-05,0
E01081,4.27405869e-05,0
E01082,0.000829569825,0
E01083,9.177314189e-05,0
E01084,0.004201353941,0
E01085,0.0001020221904,0
E01086,0.01183435405,0
E01087,7.102003683e-05,0
E01088,1.873884209e-05,0
E01089,0.0005881710386,0
E01090,6.684883675e-05,0
E01091,0.0001633774625,0
E01092,0.0001125432479,0
E01093,4.458483217e-05,0
E01094,0.0001008975406,0
E01095,8.770932874e-05,0
E01096,9.813649603e-05,0
E01097,5.355242833e-05,0
E01098,4.649112948e-05,0
E01099,0.013075879,0
E01100,5.860007494e-05,0
E01101,7.374281113e-05,0
E01102,0.0009208934351,0
E01103,0.0001770441774,0
E01104,0.0001357902665,0
E01105,0.006722036681,0
E01106,0.0001256668537,0
E01107,0.0001265448715,0
E01108,0.001050403133,0
E01109,1.572609963e-05,0
E01110,9.335760865e-05,0
E01111,5.648825913e-05,0
E01112,0.001326538502,0
E01113,0.000464499043,0
E01114,0.0005182973455,0
E01115,0.03275455905,0
E01116,0.02628335145,0
E01117,0.004216379005,0
E01118,0.8477422423,1
E01119,0.005010961589,0
E01120,8.585856548e-05,0
E01121,0.000145940899,0
E01122,0.005516538245,0
E01123,0.0008130613052,0
E01124,0.0006436909727,0
E01125,1.747848848e-05,0
E01126,4.658505009e-05,0
E01127,0.0007725467562,0
E01128,0.06100640878,0
E01129,0.06953511565,0
E01130,0.00264060844,0
E01131,8.747472619e-05,0
E01132,7.544797488e-05,0
E01133,0.0002752550501,0
E01134,0.0001002124121,0
E01135,6.837788005e-05,0
E01136,0.9981140083,1
E01137,0.002317652294,0
E01138,0.0002814927171,0
E01139,0.0004091217557,0
E01140,0.7139720758,0
E01141,0.0003397262264,0
E01142,3.831834978e-05,0
E01143,0.0001529576694,0
E01144,3.934505911e-05,0
E01145,0.0003072620416,0
E01146,0.02099341725,0
E01147,0.003965052036,0
E01148,2.511778686e-05,0
E01149,0.004092076628,0
E01150,0.03096251245,0
E01151,0.00704604089,0
E01152,0.002847772675,0
E01153,0.0001131872658,0
E01154,0.0001505084529,0
E01155,0.001020018176,0
E01156,2.303618009e-05,0
E01157,3.442719246e-05,0
E01158,0.9919137536,1
E01159,0.006649836668,0
E01160,0.003778412419,0
E01161,0.0001149403486,0
E01162,0.004552157609,0
E01163,0.04218299478,0
E01164,0.0003470078181,0
E01165,0.006889778776,0
E01166,2.096816212e-05,0
E01167,0.0002596644714,0
E01168,0.320339064,0
E01169,0.000918619887,0
E01170,0.006236589901,0
E01171,3.120734259e-05,0
E01172,0.002441003681,0
E01173,0.001086513671,0
E01174,0.0002904491883,0
E01175,0.002087481375,0
E01176,0.001993347575,0
E01177,0.0011745617,0
E01178,0.006884094845,0
E01179,0.0004114919574,0
E01180,0.7323739861,0
E01181,0.0006008241866,0
E01182,0.0006056480594,0
E01183,6.194347499e-05,0
E01184,0.85357427,1
E01185,3.79983233e-05,0
E01186,1.788950223e-05,0
E01187,5.570238173e-05,0
E01188,5.686081131e-05,0
E01189,0.0001237563804,0
E01190,4.764755084e-05,0
E01191,0.004225562543,0
E01192,4.54237297e-05,0
E01193,0.0003297664268,0
E01194,0.0004319612889,0
E01195,0.0001088882634,0
E01196,0.0002046739289,0
E01197,0.06923866466,0
E01198,3.31043739e-05,0
E01199,0.0006993985336,0
E01200,0.01223357533,0
E01201,7.80397746e-05,0
E01202,0.9787631062,1
E01203,0.0001274312157,0
E01204,0.0003413691888,0
E01205,5.386780555e-05,0
E01206,0.0002206829352,0
E01207,0.000234682128,0
E01208,9.36527779e-05,0
E01209,7.025250693e-05,0
E01210,0.005012801423,0
E01211,7.397373204e-05,0
E01212,0.9786029976,1
E01213,0.179933496,0
E01214,0.9496357777,1
E01215,0.00013424772,0
E01216,0.06837268094,0
E01217,0.0001099817379,0
E01218,0.001583545468,0
E01219,0.002816314625,0
E01220,0.001426344302,0
E01221,0.0001041980837,0
E01222,0.0001433783052,0
E01223,0.0001567685003,0
E01224,0.6788308021,0
E01225,7.423056017e-05,0
E01226,0.004791677603,0
E01227,3.476403817e-05,0
E01228,4.706628601e-05,0
E01229,3.877492075e-05,0
E01230,0.003701363934,0
E01231,0.04964851727,0
E01232,3.313568852e-05,0
E01233,6.557311887e-05,0
E01234,4.088479333e-05,0
E01235,0.0001082002753,0
E01236,0.009851914652,0
E01237,7.396579368e-05,0
E01238,0.001838148941,0
E01239,4.645830288e-05,0
E01240,0.001064284845,0
E01241,3.50324245e-05,0
E01242,0.0006739086966,0
E01243,5.646065969e-05,0
E01244,0.02915168092,0
E01245,0.009723874502,0
E01246,2.109219097e-05,0
E01247,0.0001634156425,0
E01248,9.388825563e-06,0
E01249,0.003202954845,0
E01250,0.9701329175,1
E01251,0.9912304493,1
E01252,0.000647023102,0
E01253,0.001049964238,0
E01254,3.747915707e-05,0
E01255,8.720217335e-05,0
E01256,7.092259524e-05,0
E01257,0.0001606898929,0
E01258,0.0004309671067,0
E01259,0.0001567363756,0
E01260,3.063354153e-05,0
E01261,0.9945587259,1
E01262,0.9435018387,1
E01263,6.16523868e-05,0
E01264,0.3696689077,0
E01265,0.006900873897,0
E01266,0.0002283032292,0
E01267,8.15956478e-05,0
E01268,0.0001037256053,0
E01269,0.000111657424,0
E01270,0.00443773046,0
E01271,0.0001971483421,0
E01272,0.01844788281,0
E01273,0.983966085,1
E01274,0.0002081832921,0
E01275,9.218044196e-05,0
E01276,0.003677372547,0
E01277,8.094438555e-05,0
E01278,2.483481522e-05,0
E01279,0.009588799523,0
E01280,0.0001067375304,0
E01281,0.0008620929377,0
E01282,0.001576770476,0
E01283,0.0003861504316,0
E01284,0.0001344993413,0
E01285,0.002531409318,0
E01286,0.0007800051739,0
E01287,0.001620578966,0
E01288,0.1405400832,0
E01289,0.001547231828,0
E01290,0.0006896151034,0
E01291,0.005616450446,0
E01292,0.0001568113421,0
E01293,0.002958109306,0
E01294,0.0004512401754,0
E01295,0.003272341853,0
E01296,0.003877100624,0
E01297,0.00159246402,0
E01298,0.0004515467911,0
E01299,5.028016441e-05,0
E01300,0.0002295814351,0
E01301,0.001806862733,0
E01302,0.003309620719,0
E01303,0.00470647721,0
E01304,0.004794732991,0
E01305,0.0002307359367,0
E01306,0.000581427317,0
E01307,8.463680037e-05,0
E01308,0.8436074365,1
E01309,0.0002332473985,0
E01310,0.0009471989965,0
E01311,0.6736291545,0
E01312,0.007667549799,0
E01313,0.001324458875,0
E01314,0.0001793945383,0
E01315,3.851598712e-05,0
E01316,0.002734506955,0
E01317,0.0004389376856,0
E01318,0.008139956859,0
E01319,0.06759095822,0
E01320,9.487373217e-05,0
E01321,5.923843344e-05,0
E01322,5.620836217e-05,0
E01323,5.695194726e-05,0
E01324,0.0003978128679,0
E01325,4.244053689e-05,0
E01326,2.530390176e-05,0
E01327,0.303967708,0
E01328,0.0002039055338,0
E01329,0.0002463745842,0
E01330,3.255441221e-05,0
E01331,0.0001287722126,0
E01332,2.076254949e-05,0
E01333,0.001269236073,0
E01334,0.0001016486751,0
E01335,0.0003355513445,0
E01336,9.182082128e-05,0
E01337,4.714632431e-05,0
E01338,0.04148376223,0
E01339,0.0001581018193,0
E01340,0.001501806676,0
E01341,0.001835220751,0
E01342,0.007151882101,0
E01343,2.38173376e-05,0
E01344,0.06889341247,0
E01345,0.007830023068,0
E01346,5.951653707e-05,0
E01347,0.0003788486963,0
E01348,0.00352304984,0
E01349,4.29404059e-05,0
E01350,0.0002936121238,0
E01351,0.000218006054,0
E01352,0.0002005026033,0
E01353,0.4251363997,0
E01354,3.686934047e-05,0
E01355,0.001101610257,0
E01356,0.000569880588,0
E01357,0.0003412010523,0
E01358,0.001156574176,0
E01359,0.5584642007,0
E01360,0.1365276905,0
E01361,0.0001461151523,0
E01362,0.003179137503,0
E01363,0.0001579774569,0
E01364,0.0001530769059,0
E01365,0.9018450402,1
E01366,0.9056340762,1
E01367,0.06352418333,0
E01368,0.005096427565,0
E01369,0.0004751162357,0
E01370,0.0002246986114,0
E01371,0.0002349719299,0
E01372,0.0001815592926,0
E01373,1.922573136e-05,0
E01374,0.0003168333936,0
E01375,0.003599958066,0
E01376,6.097888709e-05,0
E01377,0.02146817289,0
E01378,0.001369326347,0
E01379,0.0006941287353,0
E01380,0.0001638436955,0
E01381,0.000177555717,0
E01382,0.5820437145,0
E01383,3.319359099e-05,0
E01384,0.0003339825804,0
E01385,0.2838770209,0
E01386,0.0003251890837,0
E01387,0.0004215131776,0
E01388,0.8317400697,1
E01389,0.0002829316081,0
E01390,4.034079415e-05,0
E01391,0.0002315238325,0
E01392,0.02804548359,0
E01393,0.07020237056,0
E01394,0.0002320270419,0
E01395,0.001731433393,0
E01396,0.0002424006752,0
E01397,0.001643494371,0
E01398,1.229764418e-05,0
E01399,0.001942485188,0
E01400,5.72578994e-05,0
E01401,0.002604785048,0
E01402,0.0004314715799,0
E01403,0.0001205752146,0
E01404,0.0001475835361,0
E01405,7.190508419e-05,0
E01406,0.0019482068,0
E01407,0.002472884507,0
E01408,0.009909034468,0
E01409,0.6698286515,0
E01410,0.0001012302567,0
E01411,6.710818311e-05,0
E01412,0.0006140264001,0
E01413,0.05349158523,0
E01414,0.0003599721345,0
E01415,5.633974893e-05,0
E01416,0.09776914052,0
E01417,0.0005818428804,0
E01418,0.001965849566,0
E01419,0.03022414823,0
E01420,0.0007123142186,0
E01421,0.0001999991244,0
E01422,0.0007777306217,0
E01423,0.01093906116,0
E01424,0.0009648941206,0
E01425,2.346389958e-05,0
E01426,0.151652176,0
E01427,9.23930087e-05,0
E01428,3.391358124e-05,0
E01429,4.019676031e-05,0
E01430,0.0006341397423,0
E01431,7.583356189e-05,0
E01432,0.003699892597,0
E01433,0.002834924671,0
E01434,0.000693705645,0
E01435,7.937008598e-05,0
E01436,0.4446023582,0
E01437,0.001852894756,0
E01438,0.001288791645,0
E01439,5.227548631e-05,0
E01440,0.007193965245,0
E01441,0.04767314692,0
E01442,0.0008758318031,0
E01443,0.001676443055,0
E01444,0.18638422,0
E01445,0.01749661209,0
E01446,4.313186667e-05,0
E01447,0.588650683,0
E01448,0.0001686267922,0
E01449,0.0002060895491,0
E01450,0.000152680156,0
E01451,0.05115613067,0
E01452,0.000116079414,0
E01453,6.768279858e-05,0
E01454,5.989669341e-05,0
E01455,0.003926877254,0
E01456,0.0004415698476,0
E01457,0.0007717615966,0
E01458,0.0003028109421,0
E01459,0.01734161963,0
E01460,0.006153592788,0
E01461,7.740471803e-05,0
E01462,0.0003078273707,0
E01463,0.0002407686571,0
E01464,0.0005054266672,0
E01465,0.0001593201437,0
E01466,5.002499298e-05,0
E01467,0.01707780871,0
E01468,2.714441007e-05,0
E01469,6.036429675e-05,0
E01470,0.09104357266,0
E01471,2.189772818e-05,0
E01472,0.0008074127003,0
E01473,0.0005872043653,0
E01474,2.325288144e-05,0
E01475,0.5636546566,0
E01476,0.7083631773,0
E01477,0.0003892192112,0
E01478,0.09494648628,0
E01479,4.643236742e-05,0
E01480,0.001478223251,0
E01481,0.000110750078,0
E01482,1.460104249e-05,0
E01483,0.0002523931904,0
E01484,2.468168878e-05,0
E01485,6.253455994e-05,0
E01486,0.8619426122,1
E01487,0.0001721534388,0
E01488,0.0007758473374,0
E01489,0.01419461387,0
E01490,0.0001554621582,0
E01491,0.0551197803,0
E01492,4.156739754e-05,0
E01493,0.001126140462,0
E01494,0.0006898772472,0
E01495,0.0004537339893,0
E01496,9.131425588e-05,0
E01497,0.3310499928,0
E01498,0.001769184678,0
E01499,0.0008045082399,0
E01500,0.7062673387,0
E01501,0.0003436478456,0
E01502,0.0006532725606,0
E01503,0.9268151135,1
E01504,2.445395986e-05,0
E01505,0.00130939831,0
E01506,5.851818179e-05,0
E01507,0.000560584352,0
E01508,0.000635805825,0
E01509,0.0001319066621,0
E01510,0.001769796036,0
E01511,2.544446079e-05,0
E01512,2.081425724e-05,0
E01513,0.0006713765282,0
E01514,0.0003378716569,0
E01515,0.0003460932896,0
E01516,0.007972020746,0
E01517,8.125291972e-05,0
E01518,9.94730244e-05,0
E01519,2.524399103e-05,0
E01520,0.0002575546008,0
E01521,0.0001394015801,0
E01522,0.000211294588,0
E01523,6.375156451e-05,0
E01524,0.002122656335,0
E01525,0.2872094836,0
E01526,4.944076265e-05,0
E01527,8.756403732e-05,0
E01528,7.75512816e-05,0
E01529,0.0003315962979,0
E01530,0.0001006167936,0
E01531,1.038897937e-05,0
E01532,9.085633136e-05,0
E01533,6.986345527e-05,0
E01534,0.0009425297002,0
E01535,0.1995435889,0
E01536,0.04410120971,0
E01537,0.0344326862,0
E01538,2.655532228e-05,0
E01539,0.001961858027,0
E01540,0.001557658875,0
E01541,0.007314873177,0
E01542,0.91388716,1
E01543,0.000346406782,0
E01544,0.01789739813,0
E01545,5.966737838e-05,0
E01546,0.5376080316,0
E01547,4.080920108e-05,0
E01548,3.242204212e-05,0
E01549,0.0006011325982,0
E01550,0.9794612287,1
E01551,0.8000031419,1
E01552,0.0001407012205,0
E01553,4.839444498e-05,0
E01554,0.0009926286055,0
E01555,0.0002842525578,0
E01556,0.0002772226276,0
E01557,0.003152748121,0
E01558,0.0001785770611,0
E01559,0.0003722523113,0
E01560,0.0002130793498,0
E01561,0.0004192003015,0
E01562,0.0001146004266,0
E01563,3.198331388e-05,0
E01564,0.001307547972,0
E01565,0.0002205965321,0
E01566,0.03768737445,0
E01567,0.0001044277938,0
E01568,3.039891485e-05,0
E01569,8.427941181e-05,0
E01570,0.001637392254,0
E01571,0.0001398046095,0
E01572,0.0001542228506,0
E01573,5.132227045e-05,0
E01574,0.0001177827975,0
E01575,0.0001593847003,0
E01576,0.007007891508,0
E01577,0.707966541,0
E01578,0.005892651594,0
E01579,0.1256657798,0
E01580,0.952100796,1
E01581,0.002493960686,0
E01582,0.00323301885,0
E01583,4.176733205e-05,0
E01584,2.307257902e-05,0
E01585,8.271373965e-05,0
E01586,0.8289521162,1
E01587,0.7867576091,0
E01588,3.484766293e-05,0
E01589,0.3198161946,0
E01590,5.431089136e-05,0
E01591,0.01401429475,0
E01592,3.403066728e-05,0
E01593,0.0002987312092,0
E01594,0.008864163148,0
E01595,0.0001079717599,0
E01596,0.005279206622,0
E01597,0.006546501523,0
E01598,5.9187551e-05,0
E01599,9.252608283e-05,0
E01600,0.0001127243472,0
E01601,0.01266800613,0
E01602,0.0009798050389,0
E01603,0.000584820569,0
E01604,3.953847949e-05,0
E01605,0.0006995009162,0
E01606,0.001234061967,0
E01607,0.0001224442381,0
E01608,0.002064923148,0
E01609,0.0002371576647,0
E01610,3.976568254e-05,0
E01611,0.001506031938,0
E01612,0.0004596789271,0
E01613,0.3060630206,0
E01614,0.0003983693561,0
E01615,0.0001065932124,0
E01616,0.0001282811027,0
E01617,0.0002251361701,0
E01618,0.0001271127837,0
E01619,0.0003995830989,0
E01620,0.000883053129,0
E01621,4.655457766e-05,0
E01622,1.812213827e-05,0
E01623,0.00157585493,0
E01624,0.003909016831,0
E01625,0.4610296252,0
E01626,0.4434090684,0
E01627,0.0001417798492,0
E01628,6.904722797e-05,0
E01629,7.98531736e-05,0
E01630,0.0002809867462,0
E01631,5.162239965e-05,0
E01632,3.643392724e-05,0
E01633,0.1710259788,0
E01634,0.8388282199,1
E01635,0.01007181491,0
E01636,0.001105185494,0
E01637,6.152640796e-05,0
E01638,0.004901469893,0
E01639,0.00103606667,0
E01640,0.0002904866924,0
E01641,7.435899471e-05,0
E01642,3.465612658e-05,0
E01643,5.017234723e-05,0
E01644,0.01471989929,0
E01645,0.08048201501,0
E01646,1.322480064e-05,0
E01647,0.01766140502,0
E01648,0.000133653758,0
E01649,0.005245929015,0
E01650,0.0002372437823,0
E01651,5.0926245e-05,0
E01652,0.0001453754078,0
E01653,0.000161879976,0
E01654,0.0001817839478,0
E01655,7.090383843e-05,0
E01656,0.0001051008733,0
E01657,5.631276493e-05,0
E01658,7.548557081e-05,0
E01659,0.03815528824,0
E01660,9.527219828e-05,0
E01661,0.000866133093,0
E01662,0.001927948846,0
E01663,0.005521998515,0
E01664,2.122931178e-05,0
E01665,0.6878778283,0
E01666,0.001538114066,0
E01667,0.01241754429,0
E01668,0.1681000217,0
E01669,0.01161322357,0
E01670,4.336519141e-05,0
E01671,6.608140891e-05,0
E01672,0.000527488795,0
E01673,0.01296283492,0
E01674,0.07562366512,0
E01675,4.66584106e-05,0
E01676,3.263617395e-05,0
E01677,0.0004840858738,0
E01678,0.7967303282,0
E01679,0.9814314343,1
E01680,0.003274074589,0
E01681,0.0003519710819,0
E01682,0.0002461799827,0
E01683,0.2667308405,0
E01684,0.0001189995416,0
E01685,0.001514939662,0
E01686,6.6394866e-05,0
E01687,0.0001469378781,0
E01688,7.931494619e-05,0
E01689,0.0005300772564,0
E01690,4.032674529e-05,0
E01691,9.355292916e-05,0
E01692,5.616455131e-05,0
E01693,6.949499696e-05,0
E01694,0.00124049288,0
E01695,0.001180366587,0
E01696,0.000236505124,0
E01697,0.0002036016361,0
E01698,0.0001267773296,0
E01699,0.03682146558,0
E01700,0.08121242833,0
E01701,0.000408773181,0
E01702,5.048418878e-05,0
E01703,0.0008196664899,0
E01704,0.004473301697,0
E01705,0.0007604690128,0
E01706,9.329856124e-05,0
E01707,6.259943158e-05,0
E01708,0.001144718447,0
E01709,0.001337139573,0
E01710,0.000697224602,0
E01711,7.798250086e-05,0
E01712,0.002406890592,0
E01713,0.04076428983,0
E01714,5.435811923e-05,0
E01715,0.0005670050411,0
E01716,0.0001609095927,0
E01717,0.003408287661,0
E01718,0.005011750925,0
E01719,0.01298695131,0
E01720,0.0021530797,0
E01721,0.0153233209,0
E01722,0.0001711243254,0
E01723,2.114467411e-05,0
E01724,0.0001474946518,0
E01725,6.332143224e-05,0
E01726,0.0006924173244,0
E01727,0.05457002158,0
E01728,0.9801617279,1
E01729,0.004347518902,0
E01730,0.001482892694,0
E01731,0.0001060260509,0
E01732,0.000189117227,0
E01733,0.0005896074107,0
E01734,0.0001518220462,0
E01735,0.491139055,0
E01736,0.0001205856125,0
E01737,0.0001529384236,0
E01738,7.56883618e-05,0
E01739,0.0002423734967,0
E01740,0.001777801275,0
E01741,0.01518239238,0
E01742,2.32813578e-05,0
E01743,2.472648145e-05,0
E01744,1.428470798e-05,0
E01745,0.0005654797447,0
E01746,8.940045733e-05,0
E01747,0.003013019136,0
E01748,0.002938893202,0
E01749,3.629949463e-05,0
E01750,0.009356858729,0
E01751,8.416340956e-05,0
E01752,4.008320904e-05,0
E01753,0.00336337307,0
E01754,7.405893852e-05,0
E01755,3.678207447e-05,0
E01756,0.000128873029,0
E01757,0.9764082262,1
E01758,0.0006509181888,0
E01759,0.0008032063491,0
E01760,0.02359785855,0
E01761,0.05987123466,0
E01762,0.002177989756,0
E01763,4.662754547e-05,0
E01764,0.461192954,0
E01765,8.387136585e-05,0
E01766,0.0005080118001,0
E01767,0.5551133555,0
E01768,3.265649196e-05,0
E01769,0.0006402959606,0
E01770,0.1637810259,0
E01771,0.0750824412,0
E01772,0.688260925,0
E01773,0.02176850243,0
E01774,1.834760716e-05,0
E01775,7.134638417e-05,0
E01776,0.0001680604994,0
E01777,0.00471428576,0
E01778,1.960621729e-05,0
E01779,0.08979300691,0
E01780,0.3625024961,0
E01781,0.7499450979,0
E01782,0.06053390612,0
E01783,0.8688189725,1
E01784,0.9969646749,1
E01785,0.001322301566,0
E01786,0.2782138966,0
E01787,0.0002169883524,0
E01788,0.03626187098,0
E01789,0.006045885845,0
E01790,0.0003040919768,0
E01791,0.0001043045698,0
E01792,9.489093865e-05,0
E01793,5.700168619e-05,0
E01794,0.001588825095,0
E01795,0.0001295300241,0
E01796,0.5307933761,0
E01797,0.01671244362,0
E01798,5.195831962e-05,0
E01799,0.0001648796864,0
E01800,5.034674315e-05,0
E01801,0.0001889292543,0
E01802,5.170137821e-05,0
E01803,0.00301270197,0
E01804,0.002297991202,0
E01805,0.008650154894,0
E01806,0.9722492703,1
E01807,0.00743022041,0
E01808,0.002489142131,0
E01809,5.142926491e-05,0
E01810,0.01227047521,0
E01811,0.002306712089,0
E01812,0.003798900953,0
E01813,3.48058283e-05,0
E01814,7.69026914e-05,0
E01815,0.0002070704904,0
E01816,0.001473286896,0
E01817,0.0003864876435,0
E01818,0.002882613468,0
E01819,0.04394773873,0
E01820,0.001298161291,0
E01821,0.3348474845,0
E01822,0.003022101461,0
E01823,0.09766333434,0
E01824,0.002551875209,0
E01825,0.0017208638,0
E01826,0.001426543031,0
E01827,2.234746158e-05,0
E01828,2.636711517e-05,0
E01829,0.001148525386,0
E01830,1.863205156e-05,0
E01831,0.0004382468594,0
E01832,0.02590970323,0
E01833,0.001403272676,0
E01834,0.8835699075,1
E01835,0.0004706632732,0
E01836,8.787291747e-05,0
E01837,0.01402893358,0
E01838,0.000195299798,0
E01839,8.062516915e-05,0
E01840,0.2164385411,0
E01841,0.9381432848,1
E01842,0.006765608991,0
E01843,0.0001417175122,0
E01844,3.701205916e-05,0
E01845,0.002206127878,0
E01846,0.0001139590022,0
E01847,2.424676055e-05,0
E01848,9.550072618e-05,0
E01849,0.8868346178,1
E01850,0.003712629647,0
E01851,0.0001135288865,0
E01852,4.073111151e-05,0
E01853,0.0003643918376,0
E01854,0.0001948625787,0
E01855,0.0008844589291,0
E01856,0.956760724,1
E01857,0.0008460987167,0
E01858,0.01082303076,0
E01859,0.006400783373,0
E01860,2.588624779e-05,0
E01861,0.02118564465,0
E01862,0.1153741916,0
E01863,0.1168172124,0
E01864,2.167896034e-05,0
E01865,5.240519306e-05,0
E01866,0.0001980252485,0
E01867,3.384864747e-05,0
E01868,0.001964876411,0
E01869,0.0007800296285,0
E01870,0.0001899357745,0
E01871,0.002779158949,0
E01872,0.001441989274,0
E01873,0.06267019885,0
E01874,0.0003169477733,0
E01875,0.004200435617,0
E01876,0.000769752236,0
E01877,0.01895919234,0
E01878,0.0005632508388,0
E01879,0.0001939998441,0
E01880,7.121468137e-05,0
E01881,0.0002182978217,0
E01882,0.000424981215,0
E01883,2.322941024e-05,0
E01884,0.004728429611,0
E01885,0.0002738674894,0
E01886,0.002449071834,0
E01887,0.01045437845,0
E01888,9.865757835e-05,0
E01889,1.617103414e-05,0
E01890,0.00016549034,0
E01891,0.9859514401,1
E01892,0.002255742286,0
E01893,4.182559625e-05,0
E01894,0.08188576891,0
E01895,0.000201933157,0
E01896,0.01693560056,0
E01897,6.815733007e-05,0
E01898,0.8526100276,1
E01899,0.000115904127,0
E01900,0.00014802963,0
E01901,7.17148578e-05,0
E01902,0.001155289538,0
E01903,0.0290965318,0
E01904,0.0001009247703,0
E01905,0.001142340273,0
E01906,0.0001772215064,0
E01907,0.0002788133219,0
E01908,0.006564686944,0
E01909,0.001128534354,0
E01910,0.0002462260158,0
E01911,0.01499786671,0
E01912,0.0002633253415,0
E01913,0.005287437966,0
E01914,0.0001592176903,0
E01915,4.344934943e-05,0
E01916,0.002587156915,0
E01917,0.000421537232,0
E01918,0.0001500646336,0
E01919,6.758268633e-05,0
E01920,4.545927024e-05,0
E01921,0.001039062732,0
E01922,3.079415309e-05,0
E01923,0.0001676406409,0
E01924,0.0001123175163,0
E01925,3.58086014e-05,0
E01926,0.0001399556858,0
E01927,5.417306706e-05,0
E01928,0.00024013925,0
E01929,4.486787641e-05,0
E01930,0.1629820835,0
E01931,0.001884480552,0
E01932,0.000223229285,0
E01933,3.53552083e-05,0
E01934,4.434349915e-05,0
E01935,3.362292547e-05,0
E01936,0.001484181895,0
E01937,0.0007802093777,0
E01938,0.00047471445,0
E01939,3.183381107e-05,0
E01940,6.253687093e-05,0
E01941,5.199478505e-05,0
E01942,0.0001245380666,0
E01943,0.0007968163703,0
E01944,3.414445665e-05,0
E01945,0.2304090184,0
E01946,0.0001034742524,0
E01947,3.606646229e-05,0
E01948,0.001781740054,0
E01949,8.342534096e-05,0
E01950,6.9440773e-05,0
E01951,3.163591153e-05,0
E01952,0.2080761989,0
E01953,0.0308604129,0
E01954,7.485185398e-05,0
E01955,0.0001694891404,0
E01956,0.0001289506608,0
E01957,8.12523017e-05,0
E01958,4.908416334e-05,0
E01959,2.641366964e-05,0
E01960,0.000724437462,0
E01961,0.2759940156,0
E01962,0.004314405502,0
E01963,0.8723888536,1
E01964,5.313579451e-05,0
E01965,6.188910858e-05,0
E01966,0.0001027314996,0
E01967,5.22259891e-05,0
E01968,0.0001246651439,0
E01969,0.001389315519,0
E01970,8.1264207e-05,0
E01971,0.0003675381555,0
E01972,0.0213392663,0
E01973,0.0004726657035,0
E01974,0.0003306428685,0
E01975,0.0002382160592,0
E01976,0.05067852144,0
E01977,0.001459822034,0
E01978,0.9239095549,1
E01979,8.483141642e-05,0
E01980,0.0003976653513,0
E01981,7.386172446e-05,0
E01982,0.001257484815,0
E01983,1.367292718e-05,0
E01984,0.0001704754483,0
E01985,0.0001027277583,0
E01986,0.0005474628802,0
E01987,0.01592869206,0
E01988,0.0004687285544,0
E01989,0.001365807972,0
E01990,0.003043683038,0
E01991,0.0003813594461,0
E01992,0.00434682023,0
E01993,0.0008081974762,0
E01994,0.0004143594866,0
E01995,0.001035670287,0
E01996,0.001124134148,0
E01997,0.0005981041724,0
E01998,0.0004830636125,0
E01999,1.889511404e-05,0
E02000,0.0001038742422,0
E02001,1.012998121e-05,0
E02002,5.387981908e-05,0
E02003,0.0001876709855,0
E02004,2.624484651e-05,0
E02005,0.0001276833562,0
E02006,7.153061638e-05,0
E02007,0.0006797104797,0
E02008,0.0003388957644,0
E02009,0.0001919873244,0
E02010,6.282354581e-05,0
E02011,0.002119423327,0
E02012,0.2520271682,0
E02013,0.005563526297,0
E02014,0.0005022699449,0
E02015,0.0007184589528,0
E02016,0.8054927722,1
E02017,0.0002687891686,0
E02018,1.508530522e-05,0
E02019,0.0003484714253,0
E02020,0.9927947287,1
E02021,0.0002943692227,0
E02022,0.005211717431,0
E02023,0.9946784273,1
E02024,0.01500275101,0
E02025,0.0003454369157,0
E02026,0.01019517813,0
E02027,0.0001503577121,0
E02028,0.04519664852,0
E02029,0.003677644406,0
E02030,0.3825218689,0
E02031,0.0001270611077,0
E02032,0.004493208133,0
E02033,0.004040151949,0
E02034,0.0002057482772,0
E02035,0.001805013548,0
E02036,0.2377279193,0
E02037,0.0001359163864,0
E02038,0.5389344347,0
E02039,0.9386209455,1
E02040,5.480838071e-05,0
E02041,5.655587679e-05,0
E02042,0.0001105563459,0
E02043,0.4211160101,0
E02044,4.078747319e-05,0
E02045,4.82190158e-05,0
E02046,0.002350240818,0
E02047,0.07120698125,0
E02048,0.003899980696,0
E02049,0.0001523917733,0
E02050,0.0001131897755,0
E02051,0.002457575019,0
E02052,0.004023513882,0
E02053,0.01133729893,0
E02054,0.0004226806377,0
E02055,4.272306634e-05,0
E02056,0.0006154293972,0
E02057,0.000210684062,0
E02058,0.0003790833141,0
E02059,3.491755521e-05,0
E02060,0.000843908385,0
E02061,0.002319628318,0
E02062,0.0005060362774,0
E02063,0.0002062907081,0
E02064,0.002756428742,0
E02065,0.002096528199,0
E02066,0.001542787987,0
E02067,0.003025247426,0
E02068,0.005049338317,0
E02069,0.006497997128,0
E02070,2.36254208e-05,0
E02071,2.301210981e-05,0
E02072,5.228722052e-05,0
E02073,2.505582768e-05,0
E02074,0.9900329525,1
E02075,0.9853777005,1
E02076,1.76789029e-05,0
E02077,0.007230009917,0
E02078,0.0001051211129,0
E02079,6.502409834e-05,0
E02080,0.0002359603521,0
E02081,0.0004946443327,0
E02082,0.0002348597935,0
E02083,0.0007554722075,0
E02084,5.91493393e-05,0
E02085,0.09123253665,0
E02086,0.2640002519,0
E02087,0.0001588585992,0
E02088,0.2846826811,0
E02089,0.01408210814,0
E02090,0.0002132682289,0
E02091,7.977690851e-05,0
E02092,0.06504962867,0
E02093,0.1927521503,0
E02094,0.007276570659,0
E02095,0.002300705593,0
E02096,0.6142216075,0
E02097,0.001020996659,0
E02098,3.372641659e-05,0
E02099,3.828714972e-05,0
E02100,0.0009224868026,0
E02101,9.891800626e-05,0
E02102,5.124097846e-05,0
E02103,0.1045060384,0
E02104,0.01845203127,0
E02105,0.001561793468,0
E02106,0.001921488497,0
E02107,0.4701145771,0
E02108,0.0008754187868,0
E02109,0.01142766812,0
E02110,9.96537006e-05,0
E02111,0.001330194461,0
E02112,0.0001233433496,0
E02113,0.0003713577041,0
E02114,0.0001089495827,0
E02115,0.00038387356,0
E02116,0.0001555674782,0
E02117,0.002000728287,0
E02118,0.0008056431018,0
E02119,0.0005942177117,0
E02120,0.004157382627,0
E02121,0.8996525187,1
E02122,0.0004922008306,0
E02123,0.0001231905805,0
E02124,8.927817231e-05,0
E02125,0.04255616745,0
E02126,0.04162970892,0
E02127,6.934616426e-05,0
E02128,0.008079134533,0
E02129,3.255682715e-05,0
E02130,2.365385192e-05,0
E02131,0.0001883733666,0
E02132,0.0001330319198,0
E02133,0.002439608178,0
E02134,0.9952662073,1
E02135,2.680614903e-05,0
E02136,0.0001864817837,0
E02137,0.00012062747,0
E02138,2.609998016e-05,0
E02139,0.06322806981,0
E02140,8.179890159e-05,0
E02141,8.016310239e-05,0
E02142,3.656799373e-05,0
E02143,0.0001209492543,0
E02144,0.1062788734,0
E02145,1.712615111e-05,0
E02146,0.1543954719,0
E02147,0.0006952625679,0
E02148,5.933146737e-05,0
E02149,0.0004404974796,0
E02150,0.1650271526,0
E02151,0.01635308855,0
E02152,0.0001916647027,0
E02153,0.005364416018,0
E02154,0.0007141603594,0
E02155,0.0005649228926,0
E02156,0.0001165594246,0
E02157,0.005226673454,0
E02158,0.002399572635,0
E02159,0.0007839700541,0
E02160,0.0001719424047,0
E02161,0.0006689877857,0
E02162,0.0002689777538,0
E02163,3.145098518e-05,0
E02164,0.05102100825,0
E02165,3.413733793e-05,0
E02166,7.18932534e-05,0
E02167,2.831013702e-05,0
E02168,0.01489854563,0
E02169,0.001779625231,0
E02170,0.06374946345,0
E02171,0.0007050975648,0
E02172,0.852958855,1
E02173,0.001587288541,0
E02174,0.00573651588,0
E02175,2.542793553e-05,0
E02176,2.466264671e-05,0
E02177,0.0001210525629,0
E02178,5.04049944e-05,0
E02179,0.01579966765,0
E02180,0.6855972033,0
E02181,3.865838762e-05,0
E02182,0.0008316166187,0
E02183,0.03872231807,0
E02184,0.01301126345,0
E02185,0.1618832873,0
E02186,0.0002086392733,0
E02187,0.000371302623,0
E02188,0.0001656220656,0
E02189,4.108529853e-05,0
E02190,0.0001797240667,0
E02191,7.319618808e-05,0
E02192,0.006965469866,0
E02193,6.092320318e-05,0
E02194,0.009262667021,0
E02195,0.0001813213416,0
E02196,0.0004411996281,0
E02197,0.001642983977,0
E02198,0.001217148026,0
E02199,0.0007863521317,0
E02200,0.0005327013646,0
E02201,1.046136473e-05,0
E02202,0.0008497579158,0
E02203,5.456219968e-05,0
E02204,0.0001310865155,0
E02205,0.7042596959,0
E02206,0.000149251443,0
E02207,0.006486907031,0
E02208,7.392601582e-05,0
E02209,0.0001753945148,0
E02210,0.2499455497,0
E02211,0.119813194,0
E02212,0.0001822118873,0
E02213,0.0009041462587,0
E02214,0.9845087501,1
E02215,0.9284250126,1
E02216,0.9093454243,1
E02217,0.8173842399,1
E02218,0.001694573656,0
E02219,0.003150669432,0
E02220,8.87000267e-05,0
E02221,0.0001047867949,0
E02222,0.0001223246946,0
E02223,0.004270309619,0
E02224,0.001932018022,0
E02225,0.001711391884,0
E02226,0.0001734028317,0
E02227,0.000232543127,0
E02228,0.0006990256494,0
E02229,5.704527889e-05,0
E02230,0.0002648876233,0
E02231,7.0264091e-05,0
E02232,3.059537865e-05,0
E02233,9.932492127e-05,0
E02234,0.02658162161,0
E02235,0.1323463198,0
E02236,0.5001342404,0
E02237,0.022903617,0
E02238,0.001370248233,0
E02239,0.04275839664,0
E02240,4.199128546e-05,0
E02241,0.0001449539662,0
E02242,0.0003651484599,0
E02243,6.727307772e-05,0
E02244,4.999360631e-05,0
E02245,0.001417659232,0
E02246,0.001124023622,0
E02247,0.0004821308172,0
E02248,7.373716842e-05,0
E02249,3.612671058e-05,0
E02250,0.000695515835,0
E02251,0.008824821643,0
E02252,9.113592547e-05,0
E02253,5.238292894e-05,0
E02254,0.9019026741,1
E02255,0.1252301205,0
E02256,0.00342693959,0
E02257,0.0001659062006,0
E02258,0.8291266161,1
E02259,0.0001511937478,0
E02260,0.0148815691,0
E02261,0.002032197099,0
E02262,0.005153616315,0
E02263,0.01764091879,0
E02264,4.045621031e-05,0
E02265,0.0006994396846,0
E02266,0.0001918770106,0
E02267,7.759125308e-05,0
E02268,0.0005505116765,0
E02269,0.00422273639,0
E02270,2.482356596e-05,0
E02271,7.554372909e-05,0
E02272,0.0007080140811,0
E02273,0.9839318272,1
E02274,0.4317593403,0
E02275,0.0005972891865,0
E02276,0.0008157013964,0
E02277,0.002465626772,0
E02278,0.001768114093,0
E02279,6.39014046e-05,0
E02280,0.0001162686518,0
E02281,2.393961106e-05,0
E02282,0.0004255421429,0
E02283,3.71528249e-05,0
E02284,0.000553359953,0
E02285,0.0072494225,0
E02286,3.698793282e-05,0
E02287,0.006863535868,0
E02288,0.004005618247,0
E02289,0.001299978314,0
E02290,0.0001038952622,0
E02291,0.0005909143589,0
E02292,0.6376205101,0
E02293,0.004942058401,0
E02294,0.0007250232852,0
E02295,0.0003289225579,0
E02296,0.9425849415,1
E02297,0.0001075805324,0
E02298,0.1493271512,0
E02299,2.694522975e-05,0
E02300,8.856866402e-05,0
E02301,0.0001181082097,0
E02302,0.0004088374487,0
E02303,0.02525351981,0
E02304,6.393314726e-05,0
E02305,0.9908336505,1
E02306,6.59779408e-05,0
E02307,3.069553715e-05,0
E02308,0.0001036667609,0
E02309,9.94426042e-05,0
E02310,8.059337867e-05,0
E02311,3.900452456e-05,0
E02312,7.727781921e-05,0
E02313,0.000525021848,0
E02314,0.0003632399079,0
E02315,3.59860151e-05,0
E02316,0.980404967,1
E02317,2.915130306e-05,0
E02318,0.0003561878211,0
E02319,0.0001278425513,0
E02320,0.0001818622721,0
E02321,1.627418234e-05,0
E02322,0.00020181819,0
E02323,0.0004430707797,0
E02324,4.357276727e-05,0
E02325,0.003401841323,0
E02326,0.0001747101464,0
E02327,0.8535564894,1
E02328,4.890582753e-05,0
E02329,0.0002483313411,0
E02330,0.0001564197935,0
E02331,0.0008244676464,0
E02332,0.3405976518,0
E02333,0.2750554717,0
E02334,3.506443199e-05,0
E02335,0.001489105037,0
E02336,0.0001612972129,0
E02337,0.001505905732,0
E02338,1.655547892e-05,0
E02339,6.049744285e-05,0
E02340,0.0004397740832,0
E02341,0.0002054729066,0
E02342,2.60505064e-05,0
E02343,0.00140137012,0
E02344,0.0004099635903,0
E02345,0.829060978,1
E02346,0.005366201261,0
E02347,0.002210745417,0
E02348,0.0005732283283,0
E02349,0.03237357586,0
E02350,0.7683684801,0
E02351,0.03146483676,0
E02352,0.002778768998,0
E02353,0.00295535985,0
E02354,0.0008189692933,0
E02355,0.0002320162638,0
E02356,0.0008334525042,0
E02357,0.0001443372521,0
E02358,2.99217913e-05,0
E02359,0.1162055965,0
E02360,0.001270024508,0
E02361,0.0006668311689,0
E02362,0.0008830582335,0
E02363,0.0003260436936,0
E02364,6.837051803e-05,0
E02365,8.990958878e-05,0
E02366,0.006880844664,0
E02367,0.002406822513,0
E02368,7.905798501e-05,0
E02369,6.918916838e-05,0
E02370,0.0002985569542,0
E02371,0.0003326724074,0
E02372,0.01404349892,0
E02373,0.000270082057,0
E02374,0.7172985189,0
E02375,0.0001920352921,0
E02376,0.07137076598,0
E02377,0.7253235013,0
E02378,0.001296549559,0
E02379,0.002368136931,0
E02380,0.001815155927,0
E02381,9.845931415e-05,0
E02382,1.998502071e-05,0
E02383,2.350036576e-05,0
E02384,1.938064895e-05,0
E02385,0.0009532084329,0
E02386,0.0008378386665,0
E02387,9.297871175e-05,0
E02388,0.0002678634842,0
E02389,0.0001028287242,0
E02390,0.004507043309,0
E02391,0.0003419952778,0
E02392,0.007113469597,0
E02393,0.0005459432147,0
E02394,0.03404721569,0
E02395,0.001787198951,0
E02396,0.02338549237,0
E02397,3.586920307e-05,0
E02398,7.54580842e-05,0
E02399,4.687741601e-05,0
E02400,9.761409997e-05,0
E02401,0.01767309506,0
E02402,3.907799252e-05,0
E02403,0.0002838127335,0
E02404,0.0002356589048,0
E02405,9.445213822e-05,0
E02406,4.839896147e-05,0
E02407,0.0003066715466,0
E02408,0.0008787041034,0
E02409,0.00970569617,0
E02410,0.001326263988,0
E02411,0.0002546959308,0
E02412,0.0003822236882,0
E02413,8.279171486e-05,0
E02414,4.727573922e-05,0
E02415,0.0004043982877,0
E02416,0.0001137383466,0
E02417,1.541539765e-05,0
E02418,4.710316155e-05,0
E02419,0.4407478042,0
E02420,0.003439190201,0
E02421,0.0001867185929,0
E02422,0.04009864518,0
E02423,0.06601625264,0
E02424,0.3142488784,0
E02425,0.9964127096,1
E02426,0.002631672679,0
E02427,1.849679617e-05,0
E02428,2.763386919e-05,0
E02429,0.002477113844,0
E02430,0.9508264433,1
E02431,0.006605168599,0
E02432,0.02691713743,0
E02433,2.342998019e-05,0
E02434,0.001366939281,0
E02435,5.790882006e-05,0
E02436,0.118681814,0
E02437,0.01545553059,0
E02438,0.006340182491,0
E02439,0.01931359316,0
E02440,0.0005808577456,0
E02441,0.005978346962,0
E02442,0.7256192382,0
E02443,5.496159707e-05,0
E02444,0.0001559840984,0
E02445,2.49543314e-05,0
E02446,7.016184125e-05,0
E02447,5.974880156e-05,0
E02448,0.0004951245798,0
E02449,4.808748752e-05,0
E02450,0.0001458293888,0
E02451,0.09100766063,0
E02452,0.02360625402,0
E02453,0.0009351453599,0
E02454,0.001279123081,0
E02455,0.001334365475,0
E02456,0.0004803802899,0
E02457,0.001546624009,0
E02458,0.0114761965,0
E02459,0.0003616378169,0
E02460,0.0004039651447,0
E02461,8.705284884e-05,0
E02462,0.0001533313931,0
E02463,1.690227235e-05,0
E02464,0.0005591853704,0
E02465,0.003949432777,0
E02466,0.0008689946041,0
E02467,0.0003860606843,0
E02468,0.003437197466,0
E02469,0.007572766304,0
E02470,4.378929436e-05,0
E02471,0.0001707728866,0
E02472,0.0001110473431,0
E02473,0.01233354985,0
E02474,0.008350316791,0
E02475,0.002699107138,0
E02476,7.000932827e-05,0
E02477,3.355020517e-05,0
E02478,1.293076989e-05,0
E02479,5.428500911e-05,0
E02480,3.859390158e-05,0
E02481,1.783686934e-05,0
E02482,0.001136676106,0
E02483,0.003197146097,0
E02484,0.9644192607,1
E02485,0.0502994273,0
E02486,0.0001681941449,0
E02487,7.560177423e-05,0
E02488,0.0002821196364,0
E02489,0.739619275,0
E02490,0.3756868387,0
E02491,0.02855529073,0
E02492,0.02814457553,0
E02493,0.09784434145,0
E02494,0.003314687334,0
E02495,0.001475227088,0
E02496,0.000111972891,0
E02497,8.807022894e-05,0
E02498,0.0008932125995,0
E02499,0.1177993736,0
E02500,0.0001619272145,0
E02501,0.01874767839,0
E02502,3.371573851e-05,0
E02503,0.003750058177,0
E02504,3.93319805e-05,0
E02505,0.0004303832157,0
E02506,0.0001988981928,0
E02507,7.877441719e-05,0
E02508,0.0001302153491,0
E02509,0.0002663435208,0
E02510,9.192808498e-05,0
E02511,2.913421599e-05,0
E02512,0.002368147752,0
E02513,0.001929505983,0
E02514,3.161438142e-05,0
E02515,0.0004309271087,0
E02516,0.003580623517,0
E02517,0.003865028883,0
E02518,7.775934755e-05,0
E02519,0.000255397079,0
E02520,0.0001865702215,0
E02521,0.0005913813972,0
E02522,0.0001842217976,0
E02523,0.9275482991,1
E02524,0.00584700644,0
E02525,0.0001601937864,0
E02526,6.533027128e-05,0
E02527,0.01844117154,0
E02528,0.000314104321,0
E02529,0.0002843648775,0
E02530,9.417478983e-05,0
E02531,5.987997404e-05,0
E02532,6.925560402e-05,0
E02533,0.0004317393253,0
E02534,3.617288917e-05,0
E02535,0.002179673957,0
E02536,1.576969137e-05,0
E02537,8.360557099e-05,0
E02538,0.0001491506722,0
E02539,0.0001366100897,0
E02540,0.0001516531385,0
E02541,0.0004567506818,0
E02542,8.246430486e-05,0
E02543,0.0009307012209,0
E02544,0.0003507274086,0
E02545,0.0008052197116,0
E02546,0.05590391751,0
E02547,0.001476230212,0
E02548,0.000125704801,0
E02549,0.001299553729,0
E02550,9.545851891e-05,0
E02551,0.0004958941314,0
E02552,6.908605743e-05,0
E02553,0.0001951691748,0
E02554,0.0006328014196,0
E02555,0.0001786496191,0
E02556,0.0001826213243,0
E02557,0.001395232471,0
E02558,0.000181277349,0
E02559,0.0030265973,0
E02560,0.0003014446304,0
E02561,0.3584056956,0
E02562,0.0007881470325,0
E02563,4.094201695e-05,0
E02564,0.4170642925,0
E02565,4.49506575e-05,0
E02566,1.891104901e-05,0
E02567,0.5025374768,0
E02568,0.0003212041159,0
E02569,2.183068585e-05,0
E02570,0.01869231958,0
E02571,0.0007673226101,0
E02572,3.945031525e-05,0
E02573,8.402966641e-05,0
E02574,0.002403024079,0
E02575,0.0001332462615,0
E02576,0.0006035628256,0
E02577,9.17783604e-05,0
E02578,0.0001712530622,0
E02579,4.272734769e-05,0
E02580,0.0001631385191,0
E02581,4.149786468e-05,0
E02582,6.005205202e-05,0
E02583,0.0006450663906,0
E02584,4.641184453e-05,0
E02585,2.682254838e-05,0
E02586,0.0007508256928,0
E02587,0.001120509252,0
E02588,0.1153991819,0
E02589,0.0005449811017,0
E02590,0.0005435477577,0
E02591,0.01925765764,0
E02592,5.83058077e-05,0
E02593,0.1089275414,0
E02594,0.0003383700619,0
E02595,0.2036547616,0
E02596,0.02827119613,0
E02597,0.0002493172669,0
E02598,9.080165569e-05,0
E02599,0.01922432506,0
E02600,0.000573773836,0
E02601,0.0002626075102,0
E02602,1.901539288e-05,0
E02603,0.004633108471,0
E02604,0.0006500285613,0
E02605,4.631457453e-05,0
E02606,0.0003518862953,0
E02607,0.0001510327085,0
E02608,0.031330457,0
E02609,0.1406828629,0
E02610,0.0001008961316,0
E02611,0.0007826179849,0
E02612,0.0008205450808,0
E02613,0.03335905966,0
E02614,1.651627958e-05,0
E02615,9.166700713e-05,0
E02616,0.9180069859,1
E02617,0.0004128603662,0
E02618,0.001696768012,0
E02619,0.004661596365,0
E02620,0.0002908596935,0
E02621,0.998509027,1
E02622,0.03339796642,0
E02623,0.1030414887,0
E02624,0.002748431023,0
E02625,9.262064169e-05,0
E02626,0.001026334501,0
E02627,0.9655700629,1
E02628,3.454282058e-05,0
E02629,0.0003176017893,0
E02630,0.01091233764,0
E02631,0.0008196739524,0
E02632,7.503647061e-05,0
E02633,0.006868436844,0
E02634,6.638899012e-05,0
E02635,0.004644148129,0
E02636,0.4242591065,0
E02637,0.001896908572,0
E02638,6.326359511e-05,0
E02639,0.188820579,0
E02640,0.160231761,0
E02641,0.05241282322,0
E02642,0.001091623365,0
E02643,0.9666962602,1
E02644,0.806309118,1
E02645,0.007002188156,0
E02646,0.2192052638,0
E02647,0.001379441526,0
E02648,0.001005087268,0
E02649,0.0008911937941,0
E02650,3.133440734e-05,0
E02651,0.002868638991,0
E02652,0.0002610964937,0
E02653,3.791291893e-05,0
E02654,0.0002802169896,0
E02655,0.01123366233,0
E02656,0.00200115935,0
E02657,0.0004571076254,0
E02658,2.535424419e-05,0
E02659,0.0001113541111,0
E02660,3.874755479e-05,0
E02661,0.002414507368,0
E02662,0.005108428364,0
E02663,0.0001410639853,0
E02664,0.003306364731,0
E02665,0.0001645999394,0
E02666,3.700228391e-05,0
E02667,0.0001297614749,0
E02668,5.313449585e-05,0
E02669,0.8414524107,1
E02670,8.895228173e-05,0
E02671,6.544167401e-05,0
E02672,0.07588870833,0
E02673,0.7429646025,0
E02674,0.001712713026,0
E02675,0.00026208252,0
E02676,5.34621898e-05,0
E02677,0.000238907009,0
E02678,2.999743019e-05,0
E02679,4.27921818e-05,0
E02680,4.80585351e-05,0
E02681,1.53367451e-05,0
E02682,1.901701842e-05,0
E02683,3.650162745e-05,0
E02684,0.00122247192,0
E02685,0.001016050811,0
E02686,0.0902819654,0
E02687,0.0005634034402,0
E02688,6.841168143e-05,0
E02689,9.799574796e-05,0
E02690,0.0005318896171,0
E02691,0.0001495331783,0
E02692,0.3038399534,0
E02693,5.450823322e-05,0
E02694,4.680826371e-05,0
E02695,5.677393701e-05,0
E02696,2.610338285e-05,0
E02697,0.0001932524865,0
E02698,0.000383458225,0
E02699,2.317655448e-05,0
E02700,0.003929656958,0
E02701,0.0009338644057,0
E02702,3.155030267e-05,0
E02703,0.00969717549,0
E02704,0.2891351923,0
E02705,0.0006694549504,0
E02706,4.819968117e-05,0
E02707,3.734566431e-05,0
E02708,0.0001509612301,0
E02709,0.0001814331843,0
E02710,0.05518195989,0
E02711,0.04425766885,0
E02712,0.001135210092,0
E02713,8.491828739e-05,0
E02714,0.995278755,1
E02715,0.0004203693506,0
E02716,0.005505964458,0
E02717,0.01620398453,0
E02718,0.001014415942,0
E02719,0.0008663340188,0
E02720,0.0001427529016,0
E02721,0.0002571080792,0
E02722,0.0005198301409,0
E02723,0.000251246759,0
E02724,3.109130421e-05,0
E02725,8.967441124e-05,0
E02726,0.1231446061,0
E02727,0.0001529449937,0
E02728,0.04286120314,0
E02729,0.0009252874444,0
E02730,0.9970751685,1
E02731,8.659576846e-05,0
E02732,0.004894772926,0
E02733,0.0007446288644,0
E02734,0.00128384858,0
E02735,0.002935632917,0
E02736,0.0001066226661,0
E02737,0.008902988769,0
E02738,0.0002006187458,0
E02739,0.004024787255,0
E02740,0.02359148503,0
E02741,0.163565187,0
E02742,7.07661052e-05,0
E02743,2.191002805e-05,0
E02744,0.0002036396206,0
E02745,7.480684178e-05,0
E02746,0.01671763202,0
E02747,0.0003083792202,0
E02748,4.183340787e-05,0
E02749,0.0005784517192,0
E02750,7.153531892e-05,0
E02751,0.0001128509438,0
E02752,4.338387568e-05,0
E02753,0.001221160118,0
E02754,6.242568951e-05,0
E02755,6.461938479e-05,0
E02756,3.049010035e-05,0
E02757,0.0003015004271,0
E02758,5.117930331e-05,0
E02759,0.0003520557645,0
E02760,3.680795689e-05,0
E02761,0.0001369729078,0
E02762,0.002047540441,0
E02763,0.004650933365,0
E02764,4.54328068e-05,0
E02765,8.507814129e-05,0
E02766,0.001589042039,0
E02767,8.893216803e-05,0
E02768,3.637700086e-05,0
E02769,0.07773512277,0
E02770,0.01156036974,0
E02771,0.005662918572,0
E02772,8.929761284e-05,0
E02773,0.001179041231,0
E02774,0.001697401041,0
E02775,0.0001136669419,0
E02776,0.0003754359657,0
E02777,0.9300662082,1
E02778,0.0001640661832,0
E02779,3.048981307e-05,0
E02780,9.027547067e-05,0
E02781,0.0001726333045,0
E02782,0.0005790795648,0
E02783,0.0002340071738,0
E02784,0.004304951842,0
E02785,6.297519815e-05,0
E02786,0.9959358266,1
E02787,5.918779483e-05,0
E02788,0.05000732785,0
E02789,0.006260562215,0
E02790,0.006509084629,0
E02791,0.0001718013002,0
E02792,0.0004829852803,0
E02793,0.001710415467,0
E02794,2.534496901e-05,0
E02795,0.0003170556295,0
E02796,0.9316832296,1
E02797,0.5286500816,0
E02798,6.430508662e-05,0
E02799,0.03222775966,0
E02800,0.001187723316,0
E02801,7.968169332e-05,0
E02802,9.20485863e-05,0
E02803,3.819913926e-05,0
E02804,0.7837346239,0
E02805,0.2490291756,0
E02806,7.304391815e-05,0
E02807,0.0005253105515,0
E02808,0.002579718923,0
E02809,0.1443712256,0
E02810,0.02322573412,0
E02811,0.0001741176641,0
E02812,0.01362148447,0
E02813,0.003160731389,0
E02814,0.001036715187,0
E02815,2.712099281e-05,0
E02816,0.0003258605923,0
E02817,0.001250074373,0
E02818,0.0001487457067,0
E02819,0.0001789392537,0
E02820,0.01238732499,0
E02821,0.0006812652816,0
E02822,0.006835481164,0
E02823,0.0003576110813,0
E02824,0.0001740632635,0
E02825,1.60552019e-05,0
E02826,0.0002970428832,0
E02827,0.001553626608,0
E02828,0.03171975249,0
E02829,0.9623177745,1
E02830,0.983903876,1
E02831,0.5773074496,0
E02832,0.0001700557678,0
E02833,0.000191573042,0
E02834,0.0007330003881,0
E02835,0.001177886215,0
E02836,0.05414651956,0
E02837,0.000230030805,0
E02838,0.0001896425495,0
E02839,0.03689524203,0
E02840,0.0006259995507,0
E02841,0.001051648611,0
E02842,0.006259647462,0
E02843,9.134156384e-05,0
E02844,6.417127256e-05,0
E02845,2.997335036e-05,0
E02846,0.0001494243967,0
E02847,6.833509708e-05,0
E02848,0.001369511715,0
E02849,0.6373438521,0
E02850,0.003631398787,0
E02851,0.0002294090834,0
E02852,0.0005445394623,0
E02853,0.07332829168,0
E02854,0.7564861036,0
E02855,0.004599428188,0
E02856,0.000688022216,0
E02857,6.556249928e-05,0
E02858,0.0001971553963,0
E02859,0.9948902524,1
E02860,0.9849956425,1
E02861,0.6967382895,0
E02862,0.0001205881236,0
E02863,0.9543803176,1
E02864,0.0004312552393,0
E02865,0.0001138225979,0
E02866,0.0001123590342,0
E02867,0.000200451656,0
E02868,0.0003435389712,0
E02869,7.835866697e-05,0
E02870,0.002715704075,0
E02871,5.067744307e-05,0
E02872,0.0001079127571,0
E02873,5.086481995e-05,0
E02874,0.6565385567,0
E02875,0.2114445788,0
E02876,0.8037401179,1
E02877,0.0001144325448,0
E02878,0.0001390660698,0
E02879,0.0003649626985,0
E02880,8.973628389e-05,0
E02881,0.3389586507,0
E02882,0.001215358701,0
E02883,0.00311165745,0
E02884,0.8021647066,1
E02885,0.0003567781652,0
E02886,0.00364650789,0
E02887,0.02271650229,0
E02888,0.001672410802,0
E02889,0.007897785463,0
E02890,4.35749187e-05,0
E02891,9.130094075e-05,0
E02892,5.612859635e-05,0
E02893,0.02429585018,0
E02894,6.722698117e-05,0
E02895,0.000725785669,0
E02896,0.0006836957514,0
E02897,1.507257738e-05,0
E02898,0.0002580923931,0
E02899,7.173200952e-05,0
E02900,4.025511666e-05,0
E02901,0.003636533689,0
E02902,0.0001523666694,0
E02903,6.38330644e-05,0
E02904,6.066092897e-05,0
E02905,0.02914046132,0
E02906,4.066192701e-05,0
E02907,0.0328408599,0
E02908,0.0004493388124,0
E02909,8.309923634e-05,0
E02910,6.107659023e-05,0
E02911,0.0001348744803,0
E02912,0.0001099526134,0
E02913,8.032371766e-05,0
E02914,0.7072832089,0
E02915,0.005355812813,0
E02916,0.001881294672,0
E02917,0.001575061321,0
E02918,0.0008154670236,0
E02919,0.0002578764828,0
E02920,0.001838573507,0
E02921,0.0001125549196,0
E02922,0.0001345099683,0
E02923,0.002415561033,0
E02924,0.0001594542522,0
E02925,0.0003329056483,0
E02926,6.911984635e-05,0
E02927,0.0001049171893,0
E02928,0.00012786014,0
E02929,3.054021459e-05,0
E02930,7.541603418e-05,0
E02931,4.828256094e-05,0
E02932,8.485948303e-05,0
E02933,0.0002089200573,0
E02934,0.00113443704,0
E02935,5.343207536e-05,0
E02936,4.958901696e-05,0
E02937,0.0004354096489,0
E02938,0.003178416735,0
E02939,0.01049646231,0
E02940,0.0006881368415,0
E02941,3.39822521e-05,0
E02942,2.218610508e-05,0
E02943,5.1308211e-05,0
E02944,0.001805314118,0
E02945,0.02172349041,0
E02946,0.7548479599,0
E02947,0.0002921795451,0
E02948,0.0006555678789,0
E02949,0.003127747571,0
E02950,0.0007318092307,0
E02951,0.0001690476197,0
E02952,6.247974275e-05,0
E02953,0.007056154503,0
E02954,5.333982921e-05,0
E02955,0.0004258536402,0
E02956,0.0006151124682,0
E02957,1.410499103e-05,0
E02958,8.112712828e-05,0
E02959,7.680602903e-05,0
E02960,0.00219723111,0
E02961,5.13033095e-05,0
E02962,0.1623618302,0
E02963,0.0005382495237,0
E02964,3.495446211e-05,0
E02965,0.0216762486,0
E02966,4.702646308e-05,0
E02967,0.0006126702115,0
E02968,0.01330549263,0
E02969,5.975369107e-05,0
E02970,2.859314047e-05,0
E02971,0.0001577312581,0
E02972,0.002077999251,0
E02973,0.0004337707164,0
E02974,0.9977255366,1
E02975,0.001800933269,0
E02976,0.02440654087,0
E02977,0.002654973593,0
E02978,0.001179902371,0
E02979,0.02695783897,0
E02980,6.670796956e-05,0
E02981,0.0001301173218,0
E02982,0.0001767304414,0
E02983,0.000716637336,0
E02984,0.0002048512866,0
E02985,0.8818723594,1
E02986,0.01216514421,0
E02987,0.002459319388,0
E02988,0.08449668144,0
E02989,0.0008937114991,0
E02990,0.02277330299,0
E02991,0.000199674614,0
E02992,0.0004328761293,0
E02993,2.483322236e-05,0
E02994,0.0001490154164,0
E02995,9.288261161e-05,0
E02996,0.0001009242963,0
E02997,0.0003143159885,0
E02998,0.04767775721,0
E02999,0.003222410267,0
E03000,0.04627486873,0
E03001,0.0007489774804,0
E03002,7.200355902e-05,0
E03003,0.0005504658476,0
E03004,0.136123776,0
E03005,2.354002255e-05,0
E03006,0.0005991814985,0
E03007,0.0001051575645,0
E03008,6.619737973e-05,0
E03009,0.004071519876,0
E03010,0.0001450431787,0
E03011,6.639229022e-05,0
E03012,0.002330074453,0
E03013,0.0001693081064,0
E03014,0.0004158387253,0
E03015,0.001469600224,0
E03016,5.498439582e-05,0
E03017,0.001037809858,0
E03018,0.0002190918844,0
E03019,0.0004073378619,0
E03020,0.0002691339382,0
E03021,0.02493374476,0
E03022,0.0003824454705,0
E03023,0.0001894748362,0
E03024,0.08695464721,0
E03025,0.007683829526,0
E03026,2.748469094e-05,0
E03027,0.000325964393,0
E03028,7.604539852e-05,0
E03029,0.09043694661,0
E03030,0.00272583529,0
E03031,0.002896916543,0
E03032,2.65328029e-05,0
E03033,1.681186208e-05,0
E03034,0.000625322829,0
E03035,0.0005445930256,0
E03036,0.0001787879638,0
E03037,0.0004719543433,0
E03038,0.0001181506131,0
E03039,6.805453425e-05,0
E03040,0.002081515362,0
E03041,7.292997283e-05,0
E03042,0.1829230312,0
E03043,0.003469784793,0
E03044,1.564759456e-05,0
E03045,3.06166622e-05,0
E03046,6.572480908e-05,0
E03047,0.5438708572,0
E03048,0.0008902469959,0
E03049,0.0005142502206,0
E03050,5.20523444e-05,0
E03051,8.487301026e-05,0
E03052,0.01721625317,0
E03053,7.231262819e-05,0
E03054,0.001119496462,0
E03055,0.0005300458357,0
E03056,0.0008861659159,0
E03057,0.0005503258466,0
E03058,0.1912017679,0
E03059,0.0002322125087,0
E03060,0.001816806762,0
E03061,0.003274568385,0
E03062,0.0001189153593,0
E03063,0.001346549556,0
E03064,3.658044675e-05,0
E03065,4.837931394e-05,0
E03066,8.494186278e-05,0
E03067,0.3789359703,0
E03068,0.03235989243,0
E03069,3.267988062e-05,0
E03070,3.83716746e-05,0
E03071,0.0006696045976,0
E03072,0.0002120648607,0
E03073,6.905668618e-05,0
E03074,0.0001166197295,0
E03075,4.936298095e-05,0
E03076,0.1850866091,0
E03077,4.817044041e-05,0
E03078,0.002528326904,0
E03079,0.002171973546,0
E03080,5.974797316e-05,0
E03081,0.02964529101,0
E03082,0.0001032659407,0
E03083,3.351205997e-05,0
E03084,8.244608942e-05,0
E03085,0.0003304555008,0
E03086,0.0003989389965,0
E03087,0.01211264422,0
E03088,0.0002866206663,0
E03089,0.002178444808,0
E03090,4.789437508e-05,0
E03091,5.82780922e-05,0
E03092,0.00064637262,0
E03093,0.004542651008,0
E03094,0.0006678613134,0
E03095,5.475344207e-05,0
E03096,3.38604871e-05,0
E03097,0.0005526073326,0
E03098,6.642532687e-05,0
E03099,4.89194535e-05,0
E03100,0.003276049314,0
E03101,0.000814254793,0
E03102,0.04314768563,0
E03103,0.0001382175561,0
E03104,3.697200735e-05,0
E03105,0.000251763112,0
E03106,6.080821752e-05,0
E03107,0.0001442556518,0
E03108,3.458415771e-05,0
E03109,0.000373897917,0
E03110,7.029380448e-05,0
E03111,0.0001476399664,0
E03112,6.170645093e-05,0
E03113,0.0001784532798,0
E03114,0.0001322192478,0
E03115,7.828983387e-05,0
E03116,1.643221886e-05,0
E03117,0.03035675094,0
E03118,0.00159823571,0
E03119,8.604549274e-05,0
E03120,0.08769764435,0
E03121,0.0002713514274,0
E03122,0.7099681082,0
E03123,0.7031647497,0
E03124,0.01008158149,0
E03125,0.0001039511334,0
E03126,0.0001365841121,0
E03127,0.0002320658515,0
E03128,0.0003659035995,0
E03129,0.0001274229639,0
E03130,0.0005302055676,0
E03131,0.001309589514,0
E03132,6.075811433e-05,0
E03133,3.940889706e-05,0
E03134,0.04531170776,0
E03135,4.805003261e-05,0
E03136,0.01779907088,0
E03137,0.0002617746951,0
E03138,0.002189781448,0
E03139,0.002934125981,0
E03140,0.01561002666,0
E03141,0.005307568544,0
E03142,3.701125912e-05,0
E03143,0.977999275,1
E03144,3.685140284e-05,0
E03145,0.5319006673,0
E03146,0.000765878431,0
E03147,0.0005649330107,0
E03148,0.01382246207,0
E03149,0.00169867198,0
E03150,0.01369668729,0
E03151,0.0002701566552,0
E03152,0.0009234084373,0
E03153,0.0002960282371,0
E03154,5.402277286e-05,0
E03155,9.404659983e-05,0
E03156,0.000917590217,0
E03157,0.001031693842,0
E03158,0.2653389727,0
E03159,0.0362912855,0
E03160,3.214916575e-05,0
E03161,0.00863307951,0
E03162,0.00194250136,0
E03163,0.0001111590244,0
E03164,0.001116911535,0
E03165,0.0005182310547,0
E03166,0.000576449547,0
E03167,1.975969062e-05,0
E03168,4.782025829e-05,0
E03169,0.0001758914003,0
E03170,8.938005956e-05,0
E03171,0.002606188654,0
E03172,0.003563227617,0
E03173,1.540174586e-05,0
E03174,0.0009336701439,0
E03175,0.0003829612075,0
E03176,0.0001667009738,0
E03177,0.006466597749,0
E03178,0.03375240168,0
E03179,0.0001067654329,0
E03180,0.03611788187,0
E03181,0.0002474357219,0
E03182,0.000164496069,0
E03183,0.0006596617624,0
E03184,0.0001159117196,0
E03185,7.156779156e-05,0
E03186,1.929113197e-05,0
E03187,0.001106816452,0
E03188,0.9944686091,1
E03189,0.002283585594,0
E03190,0.0007816599718,0
E03191,0.000810357253,0
E03192,1.668358483e-05,0
E03193,0.0004179919502,0
E03194,0.0002859780656,0
E03195,0.0005039263631,0
E03196,0.01503022455,0
E03197,0.001181508546,0
E03198,0.001602714073,0
E03199,0.7873099313,0
E03200,0.0001180867143,0
E03201,0.001072248845,0
E03202,0.1858889189,0
E03203,0.00174976552,0
E03204,0.005250907639,0
E03205,0.000263652842,0
E03206,0.5255920394,0
E03207,8.547346693e-05,0
E03208,0.0002292935945,0
E03209,0.9334999422,1
E03210,0.8897065904,1
E03211,3.891722662e-05,0
E03212,0.01770760099,0
E03213,2.890366658e-05,0
E03214,0.0001342994921,0
E03215,4.519830232e-05,0
E03216,0.0003802633075,0
E03217,0.001624337745,0
E03218,4.49938216e-05,0
E03219,6.175089911e-05,0
E03220,5.771472887e-05,0
E03221,0.0007529239686,0
E03222,0.001916334441,0
E03223,0.001019335438,0
E03224,0.0009424045969,0
E03225,0.0208693673,0
E03226,0.004339813784,0
E03227,0.008879030611,0
E03228,0.001736933674,0
E03229,0.02468190719,0
E03230,4.248997678e-05,0
E03231,0.0001442826232,0
E03232,0.001428910618,0
E03233,0.006324932756,0
E03234,0.09047621023,0
E03235,0.003055124991,0
E03236,0.000776741189,0
E03237,0.002065103295,0
E03238,6.682221072e-05,0
E03239,0.0008296836711,0
E03240,0.003333332538,0
E03241,0.0002095676053,0
E03242,2.658392782e-05,0
E03243,0.0002111452766,0
E03244,0.0002548354284,0
E03245,0.001049188406,0
E03246,0.0001347316013,0
E03247,0.0186523372,0
E03248,0.000177649818,0
E03249,0.0002212121943,0
E03250,0.0002298137103,0
E03251,0.0001008455641,0
E03252,0.00660905885,0
E03253,0.04519175739,0
E03254,0.01686355516,0
E03255,0.008766943522,0
E03256,0.2283363191,0
E03257,0.801842781,1
E03258,0.0001376748062,0
E03259,4.427795292e-05,0
E03260,0.0002353707934,0
E03261,4.576821053e-05,0
E03262,2.490458443e-05,0
E03263,0.004860095628,0
E03264,0.05671437671,0
E03265,0.006850166437,0
E03266,0.006246292897,0
E03267,0.1654797725,0
E03268,4.903550021e-05,0
E03269,0.0003171328914,0
E03270,0.0001164216194,0
E03271,0.00261953209,0
E03272,0.0006019551976,0
E03273,0.003307574765,0
E03274,0.00536263346,0
E03275,0.002474823395,0
E03276,0.002100979059,0
E03277,0.0002771081593,0
E03278,0.000177719068,0
E03279,0.0001230847119,0
E03280,0.0001064862119,0
E03281,1.804445626e-05,0
E03282,6.423612258e-05,0
E03283,0.00408230222,0
E03284,0.002508462783,0
E03285,3.284846823e-05,0
E03286,0.0001624959169,0
E03287,9.761834118e-05,0
E03288,0.001332627351,0
E03289,0.0003393321063,0
E03290,0.0002230374956,0
E03291,4.326611901e-05,0
E03292,0.0008197353153,0
E03293,0.0005442680919,0
E03294,0.001471058045,0
E03295,0.003580360199,0
E03296,0.002858953316,0
E03297,4.79978348e-05,0
E03298,0.03393662147,0
E03299,7.278241189e-05,0
E03300,6.442808397e-05,0
E03301,0.0001008106447,0
E03302,0.003975684828,0
E03303,0.0004623238834,0
E03304,0.9835340026,1
E03305,0.1146854593,0
E03306,0.0001696815038,0
E03307,7.971693339e-05,0
E03308,0.01123287462,0
E03309,0.0001230948607,0
E03310,0.009694354452,0
E03311,0.0004806071586,0
E03312,0.7803637434,0
E03313,4.742172685e-05,0
E03314,3.439007833e-05,0
E03315,0.003388338249,0
E03316,8.154861153e-05,0
E03317,0.002032378554,0
E03318,0.3251973452,0
E03319,1.299028996e-05,0
E03320,0.002228332109,0
E03321,0.0002637416445,0
E03322,0.0001106225103,0
E03323,9.260143933e-05,0
E03324,7.004728827e-05,0
E03325,0.004406274886,0
E03326,0.02016516314,0
E03327,0.007729782824,0
E03328,0.9091382118,1
E03329,0.001646889487,0
E03330,8.824278132e-05,0
E03331,0.00952527532,0
E03332,4.297674783e-05,0
E03333,0.001197437469,0
E03334,6.419957866e-05,0
E03335,0.003243095818,0
E03336,0.0001697293762,0
E03337,0.0007616603638,0
E03338,0.00011797519,0
E03339,0.0001509885409,0
E03340,0.9703220324,1
E03341,6.27695716e-05,0
E03342,0.2033720031,0
E03343,0.0006382223662,0
E03344,0.0009237135748,0
E03345,0.0001055004874,0
E03346,0.001370267522,0
E03347,0.0240754418,0
E03348,0.0002281548364,0
E03349,5.594417885e-05,0
E03350,0.003427942767,0
E03351,0.001342816456,0
E03352,2.467734343e-05,0
E03353,3.720213148e-05,0
E03354,9.430676289e-05,0
E03355,0.001404321533,0
E03356,0.001793542748,0
E03357,0.02943424838,0
E03358,0.0003678184561,0
E03359,0.01511061304,0
E03360,0.0002165288859,0
E03361,0.0002677580607,0
E03362,0.0001389112396,0
E03363,0.6238867543,0
E03364,0.0008810247165,0
E03365,0.008796689231,0
E03366,0.0007384993528,0
E03367,0.0003551784113,0
E03368,0.9814612088,1
E03369,0.07260047601,0
E03370,0.01667107545,0
E03371,0.0002064531702,0
E03372,2.534080942e-05,0
E03373,8.092241334e-05,0
E03374,0.4190415016,0
E03375,0.0001593310913,0
E03376,0.0001693092396,0
E03377,0.0001485933151,0
E03378,0.0001047618791,0
E03379,0.000132821788,0
E03380,0.000119668711,0
E03381,0.7980586562,0
E03382,0.002165580858,0
E03383,0.647068343,0
E03384,0.001373741877,0
E03385,0.0002103105626,0
E03386,1.730058455e-05,0
E03387,0.00148461305,0
E03388,0.0002028905382,0
E03389,0.7152405722,0
E03390,0.5806708725,0
E03391,0.04245998759,0
E03392,0.07891717518,0
E03393,2.254473627e-05,0
E03394,0.0001311602063,0
E03395,0.0001215146286,0
E03396,0.0002119387304,0
E03397,1.404914151e-05,0
E03398,2.951104144e-05,0
E03399,7.038614566e-05,0
E03400,0.1758169969,0
E03401,0.02095153577,0
E03402,2.9996499e-05,0
E03403,0.01683278625,0
E03404,0.6552102286,0
E03405,0.0002829051916,0
E03406,0.0002408504445,0
E03407,0.281010467,0
E03408,0.000633319755,0
E03409,0.003059101343,0
E03410,0.0008448783688,0
E03411,0.0003574810024,0
E03412,0.2757937853,0
E03413,7.937119286e-05,0
E03414,0.0001144289775,0
E03415,0.01019482137,0
E03416,0.003362061901,0
E03417,0.002912818335,0
E03418,0.1007012013,0
E03419,0.01272498614,0
E03420,0.002577244186,0
E03421,5.973938316e-05,0
E03422,4.478705291e-05,0
E03423,0.000906950238,0
E03424,0.0001222803928,0
E03425,8.856415864e-05,0
E03426,7.42930131e-05,0
E03427,0.03290751911,0
E03428,0.000188728905,0
E03429,9.275822122e-05,0
E03430,0.0001636667424,0
E03431,0.01483937944,0
E03432,0.1277829671,0
E03433,0.00204569863,0
E03434,0.002530776921,0
E03435,0.001196976422,0
E03436,8.556099035e-05,0
E03437,7.060589346e-05,0
E03438,0.009934985177,0
E03439,9.418078285e-05,0
E03440,0.3308164826,0
E03441,0.6696148168,0
E03442,7.147621761e-05,0
E03443,0.0001534299254,0
E03444,0.0009220894113,0
E03445,0.1231837406,0
E03446,0.001390614169,0
E03447,0.001886897241,0
E03448,0.1297600369,0
E03449,0.01572846081,0
E03450,0.0002195210995,0
E03451,0.0008144859007,0
E03452,4.190986817e-05,0
E03453,7.243502262e-05,0
E03454,0.9095831802,1
E03455,0.0002099231212,0
E03456,0.0002399680418,0
E03457,0.0001997834399,0
E03458,5.758848802e-05,0
E03459,5.335359785e-05,0
E03460,8.301975265e-05,0
E03461,0.333164012,0
E03462,0.04018739589,0
E03463,9.099363157e-05,0
E03464,0.0004347098611,0
E03465,0.0001476541654,0
E03466,9.520923784e-05,0
E03467,8.074994289e-05,0
E03468,0.227625454,0
E03469,0.009989213175,0
E03470,0.06777367227,0
E03471,0.0001384593037,0
E03472,0.001380755589,0
E03473,0.6888742276,0
E03474,0.0002622629657,0
E03475,3.342480059e-05,0
E03476,2.022815667e-05,0
E03477,1.126615955e-05,0
E03478,0.0002179149303,0
E03479,0.0004787711392,0
E03480,0.03775243211,0
E03481,0.0002845970307,0
E03482,0.3885096374,0
E03483,3.78634733e-05,0
E03484,0.0002637590263,0
E03485,8.094832745e-05,0
E03486,0.0002604670576,0
E03487,0.0001408911186,0
E03488,0.0001780985705,0
E03489,0.0001462110976,0
E03490,9.679623795e-05,0
E03491,0.003387091163,0
E03492,0.004133817399,0
E03493,0.0006143351355,0
E03494,0.001138732234,0
E03495,2.589236714e-05,0
E03496,0.000781662831,0
E03497,0.1112720271,0
E03498,5.901958761e-05,0
E03499,0.0003890093627,0
E03500,0.01396841499,0
E03501,5.178415969e-05,0
E03502,4.901708604e-05,0
E03503,0.0002695149522,0
E03504,0.0001375435394,0
E03505,0.9795372933,1
E03506,0.004936285548,0
E03507,0.0001695046653,0
E03508,0.0003646645998,0
E03509,0.01218459479,0
E03510,0.0001032122065,0
E03511,0.00559057081,0
E03512,0.02829873309,0
E03513,0.0002488687236,0
E03514,0.000631536226,0
E03515,0.3338088142,0
E03516,2.833486335e-05,0
E03517,9.409763142e-05,0
E03518,0.02825181579,0
E03519,5.460551195e-05,0
E03520,8.848160647e-05,0
E03521,0.04231657471,0
E03522,0.9959791784,1
E03523,0.9981701035,1
E03524,8.617023379e-05,0
E03525,0.001329217792,0
E03526,1.502962898e-05,0
E03527,0.03286430411,0
E03528,4.978498094e-05,0
E03529,0.0404970095,0
E03530,0.0002365510176,0
E03531,2.248177252e-05,0
E03532,0.0001978368246,0
E03533,0.003332964256,0
E03534,0.004302461321,0
E03535,0.0005029848844,0
E03536,0.001362280368,0
E03537,9.659228632e-05,0
E03538,4.268722632e-05,0
E03539,9.953354967e-05,0
E03540,3.879643663e-05,0
E03541,8.793203168e-05,0
E03542,4.138520499e-05,0
E03543,0.0007926040349,0
E03544,0.0006957511093,0
E03545,0.001323343048,0
E03546,0.0004736663769,0
E03547,3.597825004e-05,0
E03548,0.9520897496,1
E03549,0.9905938867,1
E03550,0.0009407953846,0
E03551,8.665349013e-05,0
E03552,2.262188343e-05,0
E03553,0.0005746049042,0
E03554,0.001770866649,0
E03555,0.0002231034106,0
E03556,0.002261390317,0
E03557,0.00211668254,0
E03558,4.179359701e-05,0
E03559,0.0001443463267,0
E03560,2.084352982e-05,0
E03561,0.001542783224,0
E03562,0.9965942909,1
E03563,0.0009452287437,0
E03564,0.00162936765,0
E03565,0.002081478782,0
E03566,0.5343287171,0
E03567,0.00197261711,0
E03568,0.0004045890917,0
E03569,7.729339599e-05,0
E03570,0.009771475785,0
E03571,5.544989528e-05,0
E03572,0.01745261355,0
E03573,0.1972226193,0
E03574,0.9945248666,1
E03575,0.04673241839,0
E03576,0.4041189639,0
E03577,0.06150774324,0
E03578,0.03400619475,0
E03579,6.745470147e-05,0
E03580,8.70374666e-05,0
E03581,0.008356701249,0
E03582,0.0004260971425,0
E03583,0.006086002953,0
E03584,0.006416799778,0
E03585,0.0006958521868,0
E03586,0.0007285551089,0
E03587,0.0004063523236,0
E03588,0.0001244628635,0
E03589,0.001037108915,0
E03590,0.07280181771,0
E03591,8.464200994e-05,0
E03592,1.923624254e-05,0
E03593,0.09806145348,0
E03594,0.003241866199,0
E03595,0.0001167254178,0
E03596,0.000668865595,0
E03597,9.99678276e-05,0
E03598,0.0005846403018,0
E03599,0.1722553372,0
E03600,0.0001572536011,0
E03601,3.691078584e-05,0
E03602,5.365618633e-05,0
E03603,0.0003303870266,0
E03604,0.0001973444545,0
E03605,0.9929201513,1
E03606,2.739783514e-05,0
E03607,0.1416645369,0
E03608,0.000325623215,0
E03609,0.005861477603,0
E03610,2.112478767e-05,0
E03611,0.000104706461,0
E03612,0.008558864917,0
E03613,0.0001677573242,0
E03614,0.03239830808,0
E03615,0.2429613683,0
E03616,8.718249591e-05,0
E03617,0.0003392223042,0
E03618,0.0002069671905,0
E03619,0.0002551543739,0
E03620,0.0005368185143,0
E03621,0.0005959713648,0
E03622,6.753600288e-05,0
E03623,0.0001025477281,0
E03624,0.001481743323,0
E03625,0.007264136861,0
E03626,0.9269116443,1
E03627,0.9454621687,1
E03628,0.1736001896,0
E03629,8.470755245e-05,0
E03630,6.497625738e-05,0
E03631,9.512918018e-05,0
E03632,1.637406838e-05,0
E03633,0.000240806107,0
E03634,4.592616158e-05,0
E03635,2.572072134e-05,0
E03636,5.224657299e-05,0
E03637,3.068678447e-05,0
E03638,0.0008049032775,0
E03639,5.287598381e-05,0
E03640,0.004293455085,0
